SpectraSuite Datei
++++++++++++++++++++++++++++++++++++
Datum: Mon Feb 18 14:11:54 CET 2019
Benutzer: Admin
Dark-Spektrum vorhanden: Ja
Referenz-Spektrum vorhanden: Nein
Zahl der probierten Teilspektren: 1
Spektrometer: USB4F05832
Integrationszeit (usec): 100000 (USB4F05832)
Spektren Durchschnitt berechnet: 1 (USB4F05832)
Boxcar Glättung: 0 (USB4F05832)
Dunkelstromkorrektur: Nein (USB4F05832)
Puls/Lampe aktiviert: Nein (USB4F05832)
Correct for Detector Non-linearity: Nein (USB4F05832)
Streulichtkorrektur: Nein (USB4F05832)
Anzahl Pixel in verarbeitetem Spektrum: 3648
>>>>>Begin Processed Spectral Data<<<<<
177,54	53,25
177,75	53,25
177,97	53,25
178,19	8,19
178,41	129,02
178,63	-10,24
178,85	0,00
179,07	47,10
179,29	96,25
179,51	63,49
179,73	-8,19
179,95	-2,05
180,17	6,14
180,39	-32,77
180,61	12,29
180,83	79,87
181,05	-100,35
181,27	114,69
181,49	-12,29
181,71	-77,82
181,92	106,49
182,14	61,44
182,36	110,59
182,58	20,48
182,80	-4,10
183,02	81,92
183,24	61,44
183,46	90,11
183,68	-26,62
183,90	10,24
184,12	73,73
184,34	22,53
184,56	49,15
184,78	-43,01
185,00	-24,58
185,21	63,49
185,43	57,34
185,65	20,48
185,87	88,06
186,09	30,72
186,31	34,82
186,53	73,73
186,75	-6,14
186,97	90,11
187,19	-73,73
187,41	16,38
187,63	49,15
187,84	-59,39
188,06	65,53
188,28	92,16
188,50	6,14
188,72	47,10
188,94	53,25
189,16	14,34
189,38	24,58
189,60	69,63
189,82	59,39
190,03	86,01
190,25	-120,83
190,47	18,43
190,69	53,25
190,91	38,91
191,13	-32,77
191,35	104,45
191,57	-63,49
191,79	47,10
192,01	47,10
192,22	75,77
192,44	-55,30
192,66	63,49
192,88	20,48
193,10	194,56
193,32	90,11
193,54	86,01
193,76	161,79
193,98	63,49
194,19	26,62
194,41	49,15
194,63	61,44
194,85	-10,24
195,07	12,29
195,29	129,02
195,51	47,10
195,73	65,53
195,94	-8,19
196,16	86,01
196,38	57,34
196,60	22,53
196,82	2,05
197,04	8,19
197,26	47,10
197,48	129,02
197,69	45,06
197,91	114,69
198,13	18,43
198,35	43,01
198,57	-12,29
198,79	79,87
199,01	43,01
199,22	55,30
199,44	40,96
199,66	32,77
199,88	-28,67
200,10	73,73
200,32	-16,38
200,54	-43,01
200,75	104,45
200,97	-18,43
201,19	-20,48
201,41	12,29
201,63	22,53
201,85	51,20
202,06	53,25
202,28	12,29
202,50	-122,88
202,72	167,93
202,94	24,58
203,16	100,35
203,38	73,73
203,59	79,87
203,81	-20,48
204,03	24,58
204,25	-57,34
204,47	45,06
204,69	10,24
204,90	-57,34
205,12	71,68
205,34	-51,20
205,56	-79,87
205,78	59,39
206,00	92,16
206,21	120,83
206,43	-4,10
206,65	-75,77
206,87	-26,62
207,09	86,01
207,30	61,44
207,52	63,49
207,74	28,67
207,96	129,02
208,18	83,97
208,40	65,53
208,61	-22,53
208,83	-86,01
209,05	-32,77
209,27	28,67
209,49	20,48
209,70	81,92
209,92	-4,10
210,14	55,30
210,36	-2,05
210,58	-26,62
210,79	-8,19
211,01	67,58
211,23	-65,53
211,45	-12,29
211,67	8,19
211,88	92,16
212,10	110,59
212,32	-4,10
212,54	-10,24
212,76	2,05
212,97	8,19
213,19	-34,82
213,41	71,68
213,63	-22,53
213,85	8,19
214,06	45,06
214,28	-51,20
214,50	94,21
214,72	67,58
214,94	-38,91
215,15	-57,34
215,37	-59,39
215,59	92,16
215,81	116,73
216,02	81,92
216,24	-88,06
216,46	-30,72
216,68	-2,05
216,90	36,86
217,11	30,72
217,33	22,53
217,55	32,77
217,77	165,89
217,98	81,92
218,20	49,15
218,42	43,01
218,64	30,72
218,85	30,72
219,07	112,64
219,29	-55,30
219,51	8,19
219,73	-59,39
219,94	165,89
220,16	16,38
220,38	-34,82
220,60	8,19
220,81	28,67
221,03	-16,38
221,25	36,86
221,47	22,53
221,68	4,10
221,90	45,06
222,12	98,30
222,34	75,77
222,55	24,58
222,77	71,68
222,99	77,82
223,21	55,30
223,42	43,01
223,64	0,00
223,86	83,97
224,08	-12,29
224,29	79,87
224,51	-36,86
224,73	-43,01
224,94	79,87
225,16	79,87
225,38	65,54
225,60	73,73
225,81	24,58
226,03	120,83
226,25	-61,44
226,47	-24,58
226,68	4,10
226,90	106,49
227,12	47,10
227,33	155,65
227,55	88,06
227,77	36,86
227,99	-55,30
228,20	77,82
228,42	32,77
228,64	10,24
228,86	43,01
229,07	38,91
229,29	71,68
229,51	20,48
229,72	172,03
229,94	-30,72
230,16	49,15
230,38	10,24
230,59	40,96
230,81	-8,19
231,03	90,11
231,24	6,14
231,46	32,77
231,68	184,32
231,89	49,15
232,11	40,96
232,33	-8,19
232,55	92,16
232,76	51,20
232,98	92,16
233,20	-2,05
233,41	83,97
233,63	-8,19
233,85	-36,86
234,06	28,67
234,28	59,39
234,50	-53,25
234,71	116,73
234,93	-4,10
235,15	40,96
235,37	-16,38
235,58	32,77
235,80	43,01
236,02	32,77
236,23	16,38
236,45	-53,25
236,67	2,05
236,88	-43,01
237,10	-129,02
237,32	86,01
237,53	73,73
237,75	47,10
237,97	4,10
238,18	4,10
238,40	-40,96
238,62	16,38
238,83	18,43
239,05	40,96
239,27	49,15
239,48	100,35
239,70	53,25
239,92	90,11
240,13	-63,49
240,35	40,96
240,57	67,58
240,78	40,96
241,00	-69,63
241,22	4,10
241,43	6,14
241,65	0,00
241,87	71,68
242,08	135,17
242,30	69,63
242,52	-10,24
242,73	57,34
242,95	-110,59
243,16	51,20
243,38	-24,58
243,60	-34,82
243,81	28,67
244,03	57,34
244,25	108,54
244,46	104,45
244,68	14,34
244,90	79,87
245,11	131,07
245,33	-73,73
245,55	157,69
245,76	34,82
245,98	83,97
246,19	-6,14
246,41	81,92
246,63	-59,39
246,84	-22,53
247,06	153,60
247,28	-10,24
247,49	153,60
247,71	59,39
247,92	63,49
248,14	83,97
248,36	28,67
248,57	26,62
248,79	49,15
249,01	81,92
249,22	69,63
249,44	-57,34
249,65	118,78
249,87	57,34
250,09	94,21
250,30	32,77
250,52	90,11
250,73	94,21
250,95	14,34
251,17	102,40
251,38	71,68
251,60	106,49
251,81	172,03
252,03	69,63
252,25	16,38
252,46	118,78
252,68	98,30
252,89	55,30
253,11	40,96
253,33	-14,34
253,54	94,21
253,76	57,34
253,97	143,36
254,19	108,54
254,41	53,25
254,62	-45,06
254,84	83,97
255,05	20,48
255,27	40,96
255,49	36,86
255,70	110,59
255,92	126,97
256,13	-4,10
256,35	94,21
256,56	79,87
256,78	10,24
257,00	67,58
257,21	53,25
257,43	30,72
257,64	51,20
257,86	-10,24
258,08	126,97
258,29	94,21
258,51	14,34
258,72	34,82
258,94	131,07
259,15	118,78
259,37	22,53
259,59	-34,82
259,80	16,38
260,02	57,34
260,23	38,91
260,45	83,97
260,66	94,21
260,88	-47,10
261,09	-26,62
261,31	96,25
261,53	63,49
261,74	0,00
261,96	45,06
262,17	79,87
262,39	86,01
262,60	20,48
262,82	53,25
263,03	-2,05
263,25	124,93
263,46	81,92
263,68	4,10
263,90	71,68
264,11	34,82
264,33	-71,68
264,54	86,01
264,76	-28,67
264,97	98,30
265,19	96,25
265,40	30,72
265,62	49,15
265,83	-18,43
266,05	92,16
266,26	49,15
266,48	83,97
266,70	40,96
266,91	30,72
267,13	6,14
267,34	30,72
267,56	61,44
267,77	14,34
267,99	79,87
268,20	96,25
268,42	57,34
268,63	-8,19
268,85	135,17
269,06	45,06
269,28	71,68
269,49	53,25
269,71	81,92
269,92	-34,82
270,14	151,55
270,35	24,58
270,57	20,48
270,78	28,67
271,00	104,45
271,21	61,44
271,43	88,06
271,64	83,97
271,86	149,50
272,07	-63,49
272,29	63,49
272,50	57,34
272,72	32,77
272,93	51,20
273,15	71,68
273,36	110,59
273,58	24,58
273,79	79,87
274,01	143,36
274,22	20,48
274,44	83,97
274,65	88,06
274,87	26,62
275,08	153,60
275,30	77,82
275,51	81,92
275,73	-75,77
275,94	53,25
276,16	67,58
276,37	-26,62
276,59	4,10
276,80	-45,06
277,02	135,17
277,23	30,72
277,45	59,39
277,66	28,67
277,88	118,78
278,09	36,86
278,30	30,72
278,52	38,91
278,73	155,65
278,95	-26,62
279,16	55,30
279,38	22,53
279,59	92,16
279,81	-18,43
280,02	-40,96
280,24	-14,34
280,45	61,44
280,67	118,78
280,88	28,67
281,09	-14,34
281,31	-30,72
281,52	-22,53
281,74	163,84
281,95	126,97
282,17	43,01
282,38	38,91
282,60	141,31
282,81	100,35
283,02	143,36
283,24	61,44
283,45	-8,19
283,67	16,38
283,88	6,14
284,10	57,34
284,31	96,25
284,53	155,65
284,74	-32,77
284,95	53,25
285,17	-8,19
285,38	-28,67
285,60	-6,14
285,81	67,58
286,03	6,14
286,24	143,36
286,45	38,91
286,67	-20,48
286,88	212,99
287,10	-36,86
287,31	36,86
287,53	-8,19
287,74	20,48
287,95	49,15
288,17	143,36
288,38	-30,72
288,60	110,59
288,81	59,39
289,02	108,54
289,24	30,72
289,45	184,32
289,67	63,49
289,88	36,86
290,10	81,92
290,31	100,35
290,52	40,96
290,74	10,24
290,95	0,00
291,17	124,93
291,38	34,82
291,59	61,44
291,81	14,34
292,02	-4,10
292,24	8,19
292,45	77,82
292,66	116,73
292,88	-22,53
293,09	94,21
293,31	73,73
293,52	24,58
293,73	151,55
293,95	120,83
294,16	131,07
294,37	10,24
294,59	75,77
294,80	26,62
295,02	69,63
295,23	-22,53
295,44	-2,05
295,66	114,69
295,87	47,10
296,09	51,20
296,30	57,34
296,51	116,73
296,73	133,12
296,94	22,53
297,15	126,97
297,37	116,73
297,58	-2,05
297,79	18,43
298,01	100,35
298,22	98,30
298,44	8,19
298,65	30,72
298,86	40,96
299,08	-32,77
299,29	4,10
299,50	174,08
299,72	231,42
299,93	81,92
300,14	110,59
300,36	131,07
300,57	163,84
300,79	114,69
301,00	30,72
301,21	63,49
301,43	24,58
301,64	120,83
301,85	30,72
302,07	90,11
302,28	34,82
302,49	96,25
302,71	-22,53
302,92	61,44
303,13	14,34
303,35	114,69
303,56	67,58
303,77	51,20
303,99	96,25
304,20	36,86
304,41	53,25
304,63	112,64
304,84	98,30
305,05	4,10
305,27	104,45
305,48	-10,24
305,69	22,53
305,91	55,30
306,12	14,34
306,33	92,16
306,55	163,84
306,76	65,54
306,97	172,03
307,19	167,93
307,40	200,70
307,61	-14,34
307,82	143,36
308,04	71,68
308,25	131,07
308,46	-32,77
308,68	71,68
308,89	49,15
309,10	69,63
309,32	57,34
309,53	12,29
309,74	16,38
309,96	-38,91
310,17	120,83
310,38	55,30
310,59	-57,34
310,81	69,63
311,02	122,88
311,23	147,45
311,45	126,97
311,66	20,48
311,87	49,15
312,09	51,20
312,30	118,78
312,51	114,69
312,72	43,01
312,94	59,39
313,15	71,68
313,36	-2,05
313,58	153,60
313,79	114,69
314,00	102,40
314,21	65,54
314,43	55,30
314,64	51,20
314,85	8,19
315,06	79,87
315,28	131,07
315,49	153,60
315,70	100,35
315,92	126,97
316,13	165,89
316,34	180,22
316,55	133,12
316,77	108,54
316,98	139,26
317,19	26,62
317,40	71,68
317,62	114,69
317,83	43,01
318,04	71,68
318,25	157,69
318,47	112,64
318,68	141,31
318,89	28,67
319,11	253,95
319,32	112,64
319,53	18,43
319,74	235,52
319,96	77,82
320,17	92,16
320,38	227,32
320,59	178,17
320,81	137,21
321,02	90,11
321,23	169,98
321,44	135,17
321,65	81,92
321,87	225,28
322,08	184,32
322,29	182,27
322,50	233,47
322,72	161,79
322,93	178,17
323,14	194,56
323,35	129,02
323,57	206,84
323,78	153,60
323,99	346,11
324,20	221,18
324,41	311,29
324,63	348,15
324,84	256,00
325,05	337,91
325,26	305,15
325,48	348,15
325,69	307,20
325,90	415,74
326,11	491,51
326,32	356,35
326,54	370,68
326,75	530,42
326,96	552,95
327,17	382,97
327,39	557,05
327,60	466,94
327,81	468,98
328,02	532,47
328,23	536,57
328,45	542,71
328,66	659,45
328,87	684,02
329,08	782,32
329,29	811,00
329,51	747,51
329,72	888,82
329,93	851,96
330,14	892,91
330,35	755,70
330,56	862,19
330,78	899,06
330,99	1126,38
331,20	1015,79
331,41	1064,94
331,62	1066,99
331,84	1361,90
332,05	1345,52
332,26	1296,36
332,47	1447,91
332,68	1523,69
332,90	1425,39
333,11	1345,52
333,32	1433,58
333,53	1638,38
333,74	1540,07
333,95	1818,60
334,17	1744,87
334,38	1671,14
334,59	1986,53
334,80	1980,39
335,01	1863,65
335,22	1986,53
335,44	1888,23
335,65	1951,71
335,86	1906,66
336,07	1947,62
336,28	2054,11
336,49	2152,42
336,71	2201,57
336,92	2346,97
337,13	2303,96
337,34	2428,89
337,55	2650,07
337,76	2648,02
337,97	2783,19
338,19	2942,93
338,40	3008,47
338,61	3219,41
338,82	3360,72
339,03	3467,21
339,24	3653,58
339,45	3514,31
339,67	3854,28
339,88	3839,94
340,09	3950,53
340,30	3848,13
340,51	3831,75
340,72	3989,44
340,93	3917,76
341,15	4114,37
341,36	4063,17
341,57	4407,23
341,78	4507,58
341,99	4599,74
342,20	4898,74
342,41	4798,39
342,62	5060,53
342,84	4943,80
343,05	4904,89
343,26	4665,27
343,47	4691,90
343,68	4458,43
343,89	4546,49
344,10	4839,35
344,31	5087,15
344,53	5355,44
344,74	5543,85
344,95	5482,41
345,16	5824,42
345,37	5932,97
345,58	5846,95
345,79	6217,63
346,00	6406,05
346,21	6379,42
346,42	6504,35
346,64	6379,42
346,85	6541,21
347,06	6606,75
347,27	6707,10
347,48	6832,02
347,69	6791,06
347,90	6924,18
348,11	7092,12
348,32	6848,41
348,53	7157,65
348,75	7524,24
348,96	7526,29
349,17	7950,21
349,38	8208,26
349,59	8257,41
349,80	9164,66
350,01	9043,83
350,22	9181,04
350,43	8763,26
350,64	9080,69
350,85	9006,97
351,06	9076,60
351,28	9023,35
351,49	8814,46
351,70	8990,58
351,91	8931,19
352,12	9111,41
352,33	9117,56
352,54	9738,09
352,75	10080,10
352,96	10432,35
353,17	10874,71
353,38	11175,77
353,59	11345,75
353,80	11693,90
354,01	11675,47
354,22	11421,52
354,44	11810,64
354,65	11542,35
354,86	11724,62
355,07	11239,25
355,28	11292,50
355,49	11249,49
355,70	10819,42
355,91	10743,64
356,12	10153,83
356,33	9799,53
356,54	9668,46
356,75	9623,41
356,96	9754,48
357,17	9228,15
357,38	9195,38
357,59	8812,41
357,80	8832,89
358,01	9574,25
358,22	9559,92
358,43	10475,36
358,64	11210,58
358,85	12371,78
359,07	12574,53
359,28	13279,03
359,49	13150,01
359,70	12777,28
359,91	12908,35
360,12	12461,89
360,33	11865,93
360,54	12177,22
360,75	12146,50
360,96	12187,46
361,17	12013,38
361,38	12609,34
361,59	13729,58
361,80	13782,83
362,01	13950,76
362,22	14495,52
362,43	14327,59
362,64	14327,59
362,85	14628,64
363,06	14368,55
363,27	14931,74
363,48	15128,35
363,69	15320,85
363,90	15173,40
364,11	15443,73
364,32	15542,03
364,53	16154,38
364,74	16807,68
364,95	17848,05
365,16	18052,84
365,37	18745,06
365,58	18722,53
365,79	19183,32
366,00	19467,99
366,21	18939,62
366,42	19007,20
366,63	18312,94
366,84	18149,10
367,05	17975,02
367,26	17819,38
367,47	17293,05
367,68	16916,22
367,89	17055,48
368,10	16500,48
368,31	16236,30
368,52	16801,54
368,73	18333,42
368,94	18788,07
369,15	18431,72
369,36	18980,57
369,57	18755,30
369,78	18425,57
369,99	18839,26
370,20	18611,94
370,40	19168,99
370,61	19519,19
370,82	19631,83
371,03	19193,56
371,24	18820,83
371,45	18677,48
371,66	18231,02
371,87	17786,61
372,08	18241,26
372,29	17604,34
372,50	16660,23
372,71	16393,99
372,92	16230,15
373,13	15955,72
373,34	15914,77
373,55	16006,92
373,76	15632,15
373,97	15669,01
374,18	15828,75
374,39	16430,85
374,60	17553,14
374,81	18271,98
375,01	17993,45
375,22	19095,26
375,43	18593,51
375,64	19195,61
375,85	18603,75
376,06	19230,43
376,27	19713,75
376,48	21014,21
376,69	20520,65
376,90	21976,75
377,11	23248,54
377,32	22707,88
377,53	23297,69
377,74	23488,15
377,94	22447,79
378,15	21884,59
378,36	20797,12
378,57	20707,01
378,78	19629,78
378,99	19560,15
379,20	19447,51
379,41	20133,58
379,62	20760,26
379,83	21003,97
380,04	21694,13
380,25	21395,13
380,45	20680,39
380,66	20170,44
380,87	19054,30
381,08	17981,17
381,29	17598,20
381,50	15996,68
381,71	15236,89
381,92	14966,56
382,13	14321,45
382,34	13217,59
382,55	13168,44
382,75	12830,52
382,96	13297,46
383,17	14159,66
383,38	15236,89
383,59	15738,64
383,80	16842,50
384,01	17874,67
384,22	19230,43
384,43	19150,56
384,63	18364,14
384,84	18564,84
385,05	18007,79
385,26	18134,76
385,47	18671,33
385,68	19236,57
385,89	19091,16
386,10	19068,64
386,30	19560,15
386,51	18327,27
386,72	19506,90
386,93	18755,30
387,14	18433,77
387,35	19197,66
387,56	18673,38
387,77	18902,75
387,97	19353,30
388,18	20090,57
388,39	20670,15
388,60	21440,18
388,81	22015,66
389,02	23019,17
389,23	23029,41
389,43	23369,37
389,64	23516,83
389,85	23320,22
390,06	23965,33
390,27	25544,31
390,48	25482,88
390,69	25202,30
390,89	26216,05
391,10	24907,40
391,31	23563,93
391,52	22849,19
391,73	21325,50
391,94	18855,65
392,14	17118,97
392,35	15316,76
392,56	14298,92
392,77	13895,47
392,98	13981,48
393,19	15169,30
393,39	16832,26
393,60	18249,45
393,81	20309,71
394,02	21640,89
394,23	22984,35
394,44	24082,06
394,64	24645,26
394,85	25863,80
395,06	23821,97
395,27	22435,50
395,48	20874,95
395,69	18231,02
395,89	17831,66
396,10	16846,59
396,31	16219,91
396,52	17721,07
396,73	19396,31
396,93	21982,90
397,14	22941,35
397,35	26750,57
397,56	27344,48
397,77	29054,53
397,97	30703,15
398,18	32884,23
398,39	31677,98
398,60	32972,30
398,81	32740,88
399,01	34262,52
399,22	33271,30
399,43	34055,67
399,64	34047,48
399,85	33924,60
400,05	34622,96
400,26	34575,86
400,47	34911,72
400,68	35415,52
400,89	35245,54
401,09	36382,16
401,30	36943,31
401,51	35866,08
401,72	35778,01
401,93	36005,34
402,13	36031,96
402,34	34901,48
402,55	35214,82
402,76	34745,84
402,96	35274,21
403,17	33861,12
403,38	34401,78
403,59	33578,50
403,80	36148,70
404,00	33883,64
404,21	34092,54
404,42	34975,21
404,63	35223,01
404,83	34448,88
405,04	32724,49
405,25	33209,86
405,46	32658,96
405,66	31745,56
405,87	32978,44
406,08	32488,98
406,29	33828,35
406,49	32771,60
406,70	32658,96
406,91	32316,95
407,12	34698,73
407,32	33336,84
407,53	35716,58
407,74	35401,19
407,95	34225,65
408,15	35861,98
408,36	35245,54
408,57	34934,25
408,78	34135,54
408,98	33363,46
409,19	31690,27
409,40	32734,73
409,61	31716,89
409,81	32495,12
410,02	32970,25
410,23	34084,34
410,44	35720,67
410,64	35456,48
410,85	35122,66
411,06	35720,67
411,26	35481,06
411,47	35587,55
411,68	35835,36
411,89	34428,40
412,09	35280,36
412,30	34749,93
412,51	33056,26
412,72	34131,45
412,92	35902,94
413,13	35251,69
413,34	35030,51
413,54	34229,75
413,75	34719,21
413,96	34571,76
414,17	33625,60
414,37	34256,37
414,58	33496,58
414,79	34557,42
414,99	33574,40
415,20	34813,42
415,41	35044,84
415,61	35712,48
415,82	34899,44
416,03	33351,17
416,24	33353,22
416,44	33715,71
416,65	33658,37
416,86	33949,18
417,06	32908,81
417,27	32101,91
417,48	32079,38
417,68	33338,88
417,89	33148,42
418,10	32286,23
418,30	33449,47
418,51	32501,26
418,72	32097,81
418,92	33535,49
419,13	31479,33
419,34	32798,22
419,55	32642,57
419,75	32882,19
419,96	33160,71
420,17	35005,93
420,37	34328,05
420,58	32939,53
420,79	32517,65
420,99	34403,83
421,20	34137,59
421,41	32826,89
421,61	32605,71
421,82	30711,34
422,03	31950,36
422,23	31440,42
422,44	32155,16
422,65	32341,52
422,85	31823,39
423,06	32300,56
423,26	32943,63
423,47	33521,15
423,68	32132,63
423,88	32542,22
424,09	31688,22
424,30	32026,14
424,50	32450,06
424,71	32529,94
424,92	31362,59
425,12	30996,01
425,33	32628,24
425,54	33117,70
425,74	32333,33
425,95	31245,86
426,15	32310,80
426,36	29740,60
426,57	31321,63
426,77	30209,59
426,98	31032,87
427,19	30373,42
427,39	31272,48
427,60	29793,85
427,81	30189,11
428,01	29441,60
428,22	30924,33
428,42	28069,46
428,63	28292,69
428,84	27670,11
429,04	25753,21
429,25	25159,30
429,45	23377,56
429,66	23703,19
429,87	24020,63
430,07	23875,22
430,28	25073,28
430,49	26132,08
430,69	28382,80
430,90	29234,75
431,10	29290,05
431,31	30172,72
431,52	31538,72
431,72	30246,45
431,93	31135,27
432,13	31950,36
432,34	32587,28
432,55	30801,45
432,75	32067,09
432,96	31278,63
433,16	29810,23
433,37	30506,54
433,58	31669,79
433,78	31043,11
433,99	29754,94
434,19	31901,21
434,40	31866,39
434,60	32986,63
434,81	32767,50
435,02	32738,83
435,22	34340,34
435,43	33867,26
435,63	33320,45
435,84	34702,83
436,05	34366,96
436,25	32208,40
436,46	34776,56
436,66	33062,41
436,87	32149,01
437,07	30838,31
437,28	30303,79
437,48	31264,29
437,69	29699,64
437,90	30238,26
438,10	30279,22
438,31	30422,58
438,51	32804,36
438,72	31313,44
438,92	31258,15
439,13	31821,34
439,34	31632,93
439,54	31677,98
439,75	31196,71
439,95	31729,18
440,16	32601,61
440,36	32884,23
440,57	32472,59
440,77	34127,35
440,98	33230,34
441,18	33181,19
441,39	33682,94
441,60	35337,70
441,80	34065,91
442,01	32673,29
442,21	34153,97
442,42	32951,82
442,62	33203,72
442,83	33486,34
443,03	33877,50
443,24	33658,37
443,44	33396,23
443,65	33846,78
443,85	33662,46
444,06	33635,84
444,26	32966,15
444,47	32065,05
444,67	32998,92
444,88	31972,89
445,09	30821,93
445,29	31897,11
445,50	31634,97
445,70	31286,82
445,91	32312,85
446,11	31968,79
446,32	32792,08
446,52	32941,58
446,73	33056,26
446,93	33809,92
447,14	32853,51
447,34	33402,37
447,55	32507,41
447,75	33455,62
447,96	33707,52
448,16	32802,32
448,37	33629,69
448,57	32880,14
448,78	33164,81
448,98	33197,57
449,19	33394,18
449,39	34661,87
449,60	33771,00
449,80	35126,76
450,01	35345,89
450,21	34754,03
450,42	34862,57
450,62	34201,08
450,83	34016,76
451,03	33629,69
451,23	33510,91
451,44	32943,63
451,64	32675,34
451,85	31378,98
452,05	32296,47
452,26	31497,76
452,46	31252,00
452,67	31092,26
452,87	31473,18
453,08	32063,00
453,28	30916,14
453,49	32656,91
453,69	31354,40
453,90	32005,66
454,10	32054,81
454,31	31837,72
454,51	31985,18
454,71	32243,22
454,92	32409,11
455,12	31870,49
455,33	33127,94
455,53	33713,66
455,74	34756,08
455,94	35141,10
456,15	35487,20
456,35	36541,91
456,55	35642,85
456,76	36435,41
456,96	38094,27
457,17	34493,94
457,37	38329,78
457,58	35718,62
457,78	37651,91
457,99	36171,22
458,19	33619,46
458,39	36097,50
458,60	37125,58
458,80	36689,36
459,01	35562,98
459,21	36089,31
459,42	37230,02
459,62	35100,14
459,82	38286,78
460,03	37340,61
460,23	37488,07
460,44	37772,74
460,64	35020,27
460,85	38991,28
461,05	36234,71
461,25	36220,38
461,46	39343,53
461,66	38208,95
461,87	37113,29
462,07	38006,20
462,27	35986,91
462,48	35503,59
462,68	36572,63
462,89	36363,73
463,09	35804,64
463,29	36044,25
463,50	35728,86
463,70	36773,33
463,91	35433,96
464,11	34942,44
464,31	35739,10
464,52	36066,78
464,72	37098,95
464,93	36511,19
465,13	37713,34
465,33	35517,92
465,54	35098,09
465,74	34784,75
465,95	35864,03
466,15	35841,50
466,35	36533,71
466,56	36257,24
466,76	36320,73
466,96	36091,35
467,17	36085,21
467,37	36447,70
467,58	36687,31
467,78	36380,12
467,98	37182,92
468,19	36253,14
468,39	37635,52
468,59	37696,96
468,80	37180,87
469,00	36474,32
469,21	36011,48
469,41	36081,11
469,61	37266,89
469,82	35454,44
470,02	37268,94
470,22	38622,64
470,43	38354,36
470,63	38219,19
470,83	40785,30
471,04	39382,44
471,24	40101,28
471,45	38995,37
471,65	39837,09
471,85	39108,01
472,06	40261,02
472,26	40162,72
472,46	40152,48
472,67	40355,22
472,87	40474,01
473,07	40230,30
473,28	40246,68
473,48	41528,71
473,68	41454,98
473,89	41670,02
474,09	42091,90
474,29	41268,62
474,50	42290,55
474,70	41872,77
474,90	41928,06
475,11	41610,63
475,31	41489,80
475,51	41821,57
475,72	41612,68
475,92	42089,85
476,12	41575,81
476,33	42904,95
476,53	43087,21
476,73	43951,46
476,93	44363,10
477,14	43689,32
477,34	44072,29
477,54	44475,74
477,75	44604,76
477,95	44023,14
478,15	44963,15
478,36	45317,45
478,56	44838,23
478,76	45579,59
478,97	46046,53
479,17	45272,40
479,37	45501,77
479,57	45999,43
479,78	46232,89
479,98	45794,63
480,18	46411,07
480,39	47080,75
480,59	47394,09
480,79	47058,23
480,99	47215,92
481,20	47686,95
481,40	47344,94
481,60	47801,64
481,81	47015,22
482,01	47009,07
482,21	46923,06
482,41	47142,19
482,62	47254,83
482,82	46882,10
483,02	47596,84
483,23	47172,91
483,43	47768,87
483,63	46816,57
483,83	47265,07
484,04	47754,54
484,24	46568,76
484,44	45540,68
484,64	44422,49
484,85	42931,57
485,05	42530,17
485,25	41737,60
485,45	40994,19
485,66	41735,56
485,86	42321,27
486,06	42118,53
486,26	42988,91
486,47	43701,61
486,67	44666,20
486,87	45544,78
487,07	45450,57
487,28	45522,25
487,48	45878,60
487,68	46728,50
487,88	46474,55
488,09	46314,81
488,29	47000,88
488,49	47822,12
488,69	47709,48
488,90	48567,58
489,10	48086,31
489,30	48512,28
489,50	49059,09
489,71	48741,66
489,91	49452,30
490,11	48764,18
490,31	48373,02
490,52	48010,53
490,72	47652,14
490,92	47400,24
491,12	46843,19
491,32	47256,88
491,53	47256,88
491,73	47263,02
491,93	48117,03
492,13	48151,84
492,33	47701,29
492,54	47785,25
492,74	48364,83
492,94	47684,90
493,14	48493,85
493,35	48231,71
493,55	48987,41
493,75	49067,28
493,95	48885,01
494,15	48506,14
494,36	49566,99
494,56	48674,07
494,76	48502,04
494,96	48784,66
495,16	48549,15
495,37	48516,38
495,57	48309,53
495,77	48336,16
495,97	48708,89
496,17	49081,62
496,37	48741,66
496,58	48647,45
496,78	46892,34
496,98	47799,59
497,18	46777,65
497,38	46740,79
497,59	46552,38
497,79	46650,68
497,99	46624,06
498,19	46884,15
498,39	46361,92
498,59	47058,23
498,80	46402,88
499,00	46667,06
499,20	45905,22
499,40	45292,88
499,60	44967,25
499,80	44952,91
500,01	44430,68
500,21	44316,00
500,41	43445,61
500,61	43498,86
500,81	43294,06
501,01	43169,13
501,22	43236,72
501,42	43564,39
501,62	42972,53
501,82	43750,76
502,02	43566,44
502,22	42952,05
502,42	42458,49
502,63	42943,86
502,83	41819,52
503,03	41502,09
503,23	41753,99
503,43	41475,46
503,63	41371,02
503,83	41471,37
504,04	40883,60
504,24	41397,64
504,44	41821,57
504,64	42030,46
504,84	41850,24
505,04	41641,35
505,24	42294,65
505,44	42001,79
505,65	41723,27
505,85	41495,94
506,05	41411,98
506,25	40879,50
506,45	40545,69
506,65	40576,40
506,85	40439,19
507,05	40132,00
507,26	40465,81
507,46	40064,41
507,66	40717,71
507,86	41211,28
508,06	41346,44
508,26	41696,64
508,46	41022,86
508,66	41354,63
508,86	41266,57
509,06	40942,99
509,27	40652,18
509,47	40863,12
509,67	40969,61
509,87	40582,55
510,07	41016,72
510,27	41383,30
510,47	41149,84
510,67	41280,91
510,87	41287,05
511,07	41188,75
511,28	40760,72
511,48	39882,14
511,68	40103,32
511,88	40488,34
512,08	39685,54
512,28	39880,10
512,48	39693,73
512,68	39450,02
512,88	39316,90
513,08	39196,07
513,28	39445,93
513,48	39374,25
513,68	39329,19
513,89	39316,90
514,09	38829,49
514,29	39988,64
514,49	39632,29
514,69	39558,56
514,89	39726,50
515,09	39280,04
515,29	38731,18
515,49	37715,39
515,69	36758,99
515,89	35861,98
516,09	35808,73
516,29	35913,18
516,49	36222,42
516,69	35870,17
516,89	36165,08
517,09	36144,60
517,29	35782,11
517,50	36195,80
517,70	36197,85
517,90	36634,06
518,10	36597,20
518,30	38333,88
518,50	37942,72
518,70	38321,59
518,90	39007,66
519,10	39726,50
519,30	39497,13
519,50	39757,22
519,70	39720,35
519,90	39884,19
520,10	40494,49
520,30	39873,95
520,50	40136,09
520,70	40586,64
520,90	40435,10
521,10	40445,33
521,30	39888,29
521,50	40594,84
521,70	40017,31
521,90	40076,70
522,10	39779,74
522,30	39208,36
522,50	40103,32
522,70	40215,96
522,90	41282,95
523,10	40959,38
523,30	41352,59
523,50	40994,19
523,70	41420,17
523,90	41026,96
524,10	40961,42
524,30	41092,49
524,50	41211,28
524,70	41481,61
524,90	40643,99
525,10	39988,64
525,30	39687,59
525,50	38835,63
525,70	38137,27
525,90	37490,12
526,10	37010,89
526,30	37512,64
526,50	37709,25
526,70	38022,59
526,90	38571,44
527,10	38553,01
527,30	39400,87
527,50	39300,52
527,70	40017,31
527,90	40496,53
528,10	40547,73
528,30	40793,49
528,50	40603,03
528,70	40215,96
528,90	40220,06
529,10	40015,26
529,30	39937,44
529,50	40834,45
529,70	40611,22
529,90	40963,47
530,10	40734,10
530,29	41059,73
530,49	40531,35
530,69	40394,14
530,89	40377,75
531,09	39505,32
531,29	39040,43
531,49	38878,64
531,69	38337,98
531,89	38018,49
532,09	38215,10
532,29	38057,40
532,49	37608,90
532,69	38094,27
532,89	38024,64
533,09	38057,40
533,29	38432,18
533,49	38016,44
533,68	37782,98
533,88	38766,00
534,08	38442,42
534,28	38481,33
534,48	39032,24
534,68	39177,64
534,88	39103,92
535,08	38806,96
535,28	38862,26
535,48	38088,12
535,68	37971,39
535,88	37641,67
536,08	37129,67
536,27	37176,78
536,47	37260,74
536,67	37596,61
536,87	37359,05
537,07	37944,76
537,27	37877,18
537,47	37426,63
537,67	36994,51
537,87	36726,22
538,07	37449,16
538,27	36503,00
538,46	36437,46
538,66	36195,80
538,86	35532,26
539,06	35476,96
539,26	35034,60
539,46	34459,12
539,66	34588,14
539,86	34311,67
540,06	34639,34
540,25	34438,64
540,45	34600,43
540,65	34391,54
540,85	34917,87
541,05	35306,98
541,25	34522,61
541,45	34950,63
541,65	34778,61
541,85	34504,18
542,04	34633,20
542,24	34471,41
542,44	34934,25
542,64	34196,98
542,84	34807,28
543,04	34801,13
543,24	34690,54
543,43	34395,64
543,63	34455,03
543,83	34283,00
544,03	33674,75
544,23	34131,45
544,43	34166,26
544,63	34237,94
544,82	33918,46
545,02	33607,17
545,22	33822,20
545,42	33340,93
545,62	34053,62
545,82	33510,91
546,02	33451,52
546,21	33404,42
546,41	33121,80
546,61	32370,19
546,81	32521,74
547,01	32071,19
547,21	32335,38
547,40	31966,74
547,60	32312,85
547,80	31919,64
548,00	32603,66
548,20	32581,13
548,40	32366,10
548,59	32194,07
548,79	32417,30
548,99	31723,04
549,19	32329,23
549,39	32280,08
549,59	31684,12
549,78	31579,68
549,98	31348,26
550,18	31043,11
550,38	31110,69
550,58	31186,47
550,77	31608,35
550,97	31436,32
551,17	30787,11
551,37	31383,07
551,57	30889,51
551,76	30793,26
551,96	30541,36
552,16	30330,42
552,36	30496,30
552,56	30045,75
552,75	30035,51
552,95	30400,05
553,15	30434,86
553,35	30375,47
553,55	29961,78
553,74	30346,80
553,94	29941,30
554,14	30211,64
554,34	29503,04
554,54	29904,44
554,73	30000,69
554,93	29580,86
555,13	29890,10
555,33	28939,85
555,53	29220,42
555,72	28434,00
555,92	28491,34
556,12	28382,80
556,32	27926,10
556,51	28321,36
556,71	28497,49
556,91	28071,51
557,11	27860,57
557,30	27727,45
557,50	27545,18
557,70	26943,08
557,90	27033,19
558,10	26812,01
558,29	26470,00
558,49	27211,36
558,69	26533,48
558,89	26588,78
559,08	26648,17
559,28	26936,93
559,48	26685,03
559,68	26920,55
559,87	27020,90
560,07	27006,56
560,27	26779,24
560,47	26711,66
560,66	26803,82
560,86	26642,03
561,06	26177,14
561,25	26617,45
561,45	26259,06
561,65	26621,55
561,85	26486,38
562,04	26216,05
562,24	25949,81
562,44	26441,32
562,64	26021,49
562,83	26117,75
563,03	26297,97
563,23	26058,35
563,42	25736,82
563,62	26052,21
563,82	25622,14
564,02	25624,18
564,21	25306,75
564,41	25114,24
564,61	25194,11
564,80	24917,64
565,00	24577,67
565,20	24610,44
565,40	24702,60
565,59	24592,01
565,79	24655,50
565,99	25173,63
566,18	24993,41
566,38	24991,36
566,58	24571,53
566,78	24800,90
566,97	24581,77
567,17	24712,84
567,37	24395,40
567,56	24182,42
567,76	23973,52
567,96	23957,14
568,15	23778,97
568,35	23746,20
568,55	23858,84
568,74	23899,80
568,94	23785,11
569,14	23643,80
569,33	23291,55
569,53	23156,38
569,73	22927,01
569,92	22976,16
570,12	22869,67
570,32	22533,80
570,52	22165,17
570,71	22709,93
570,91	22703,78
571,11	23037,60
571,30	22943,39
571,50	23299,74
571,70	23117,47
571,89	23113,38
572,09	23035,55
572,28	23250,59
572,48	22941,35
572,68	23346,84
572,87	23453,34
573,07	23234,21
573,27	22910,63
573,46	22822,56
573,66	22644,39
573,86	22501,03
574,05	22822,56
574,25	22486,70
574,45	22113,97
574,64	22288,04
574,84	22073,01
575,04	22097,58
575,23	22347,44
575,43	21874,35
575,62	22279,85
575,82	21966,51
576,02	21561,02
576,21	22120,11
576,41	21954,23
576,61	21917,36
576,80	21860,02
577,00	21712,56
577,19	21296,83
577,39	21241,53
577,59	21497,53
577,78	21276,35
577,98	21427,90
578,18	21391,03
578,37	21157,57
578,57	21833,39
578,76	21397,18
578,96	21534,39
579,16	21446,33
579,35	21718,71
579,55	21483,19
579,74	21255,87
579,94	21401,27
580,14	21788,34
580,33	21378,75
580,53	21245,63
580,72	21421,75
580,92	21655,22
581,12	21221,05
581,31	21616,31
581,51	21685,94
581,70	21368,51
581,90	21526,20
582,10	21380,79
582,29	21579,45
582,49	21460,66
582,68	21712,56
582,88	21702,32
583,07	21587,64
583,27	21540,54
583,47	21388,99
583,66	21423,80
583,86	21249,72
584,05	21409,47
584,25	20848,32
584,44	20850,37
584,64	20455,11
584,84	20575,94
585,03	20346,57
585,23	20174,54
585,42	20741,83
585,62	20516,55
585,81	20598,47
586,01	20340,43
586,20	20387,53
586,40	20453,06
586,60	20332,23
586,79	20596,42
586,99	20321,99
587,18	19865,30
587,38	19769,04
587,57	19269,34
587,77	19324,63
587,96	18374,38
588,16	18505,45
588,35	18177,77
588,55	18151,15
588,75	17893,10
588,94	18192,11
589,14	18265,83
589,33	18145,00
589,53	18740,96
589,72	18444,01
589,92	19355,35
590,11	18771,68
590,31	18671,33
590,50	18931,42
590,70	18886,37
590,89	18859,74
591,09	18867,94
591,28	18659,04
591,48	18790,11
591,67	18386,66
591,87	18810,59
592,06	18806,50
592,26	18613,99
592,45	18419,43
592,65	18929,38
592,84	18611,94
593,04	18411,24
593,23	18382,57
593,43	18280,17
593,62	17800,94
593,82	18167,53
594,01	17956,59
594,21	17766,13
594,40	17932,01
594,60	17833,71
594,79	17843,95
594,99	17618,68
595,18	18169,58
595,38	17538,80
595,57	17856,24
595,77	18093,80
595,96	17929,97
596,16	17995,50
596,35	17854,19
596,55	17202,94
596,74	17817,33
596,94	17391,35
597,13	17460,98
597,33	17393,40
597,52	17049,34
597,72	17379,06
597,91	17338,10
598,11	16776,96
598,30	16957,18
598,50	17114,87
598,69	17028,86
598,88	16973,56
599,08	16895,74
599,27	16944,89
599,47	16658,18
599,66	16711,42
599,86	16393,99
600,05	16576,26
600,25	16598,79
600,44	16170,76
600,64	16291,59
600,83	16066,31
601,02	16123,66
601,22	15888,14
601,41	15906,57
601,61	16111,37
601,80	15925,00
602,00	16170,76
602,19	16027,40
602,38	15818,51
602,58	16109,32
602,77	16205,58
602,97	15939,34
603,16	16158,47
603,36	15482,64
603,55	15861,52
603,74	15564,56
603,94	16054,03
604,13	15890,19
604,33	15841,04
604,52	15615,76
604,72	15644,43
604,91	15464,21
605,10	15517,46
605,30	15296,28
605,49	15357,72
605,69	15550,23
605,88	15085,34
606,07	14935,84
606,27	15230,74
606,46	14757,66
606,66	14892,83
606,85	14595,87
607,04	14853,92
607,24	14645,02
607,43	14485,28
607,63	14649,12
607,82	14239,53
608,01	14323,49
608,21	14354,21
608,40	14266,15
608,60	14096,17
608,79	14108,46
608,98	13922,09
609,18	13928,24
609,37	14008,11
609,57	13535,03
609,76	13727,53
609,95	13737,77
610,15	13868,84
610,34	13926,19
610,53	13821,74
610,73	13520,69
610,92	13975,34
611,11	13471,54
611,31	13549,36
611,50	13412,15
611,70	13520,69
611,89	13377,33
612,08	13436,72
612,28	13416,24
612,47	13276,98
612,66	13567,79
612,86	13217,59
613,05	13107,00
613,24	13305,65
613,44	13367,09
613,63	13272,89
613,82	13348,66
614,02	13205,30
614,21	13104,95
614,41	13299,51
614,60	13221,69
614,79	12683,07
614,99	13008,70
615,18	13223,73
615,37	13000,51
615,57	13045,56
615,76	13018,94
615,95	12764,99
616,15	12830,52
616,34	13045,56
616,53	13061,94
616,73	13236,02
616,92	13283,13
617,11	13283,13
617,30	13279,03
617,50	13354,80
617,69	13379,38
617,88	13393,72
618,08	13258,55
618,27	13311,80
618,46	13623,09
618,66	13416,24
618,85	13643,57
619,04	13371,19
619,24	13449,01
619,43	13645,62
619,62	13600,56
619,82	13856,56
620,01	13535,03
620,20	13578,03
620,39	13360,95
620,59	13324,08
620,78	13049,66
620,97	13272,89
621,17	13326,13
621,36	13502,26
621,55	13332,28
621,74	13104,95
621,94	13141,82
622,13	13096,76
622,32	13029,18
622,52	12961,59
622,71	13168,44
622,90	12965,69
623,09	12941,11
623,29	12840,76
623,48	12867,39
623,67	13039,42
623,86	12578,62
624,06	12572,48
624,25	12523,33
624,44	12457,79
624,64	12592,96
624,83	12648,26
625,02	12281,67
625,21	12627,78
625,41	12812,09
625,60	12750,65
625,79	12502,85
625,98	12316,48
626,18	12572,48
626,37	12384,07
626,56	12351,30
626,75	12029,77
626,95	11810,64
627,14	12019,53
627,33	11908,94
627,52	11931,47
627,72	11775,82
627,91	12091,21
628,10	12029,77
628,29	11698,00
628,49	11982,67
628,68	11478,86
628,87	11595,60
629,06	11730,76
629,25	11593,55
629,45	11509,58
629,64	11523,92
629,83	11591,50
630,02	11362,13
630,22	11388,75
630,41	11763,53
630,60	11507,54
630,79	11368,27
630,98	11382,61
631,18	11335,51
631,37	11511,63
631,56	11560,78
631,75	11439,95
631,94	11597,65
632,14	11284,31
632,33	11267,92
632,52	11298,64
632,71	11265,88
632,90	11294,55
633,10	11288,40
633,29	11181,91
633,48	11278,16
633,67	11237,20
633,86	11347,79
634,06	11235,16
634,25	11235,16
634,44	11056,98
634,63	11235,16
634,82	10862,43
635,02	11222,87
635,21	10880,86
635,40	10878,81
635,59	11018,07
635,78	10809,18
635,97	11341,65
636,17	10805,08
636,36	11099,99
636,55	10776,41
636,74	11124,57
636,93	10686,30
637,12	10964,82
637,32	11020,12
637,51	10856,28
637,70	10649,44
637,89	10958,68
638,08	10841,95
638,27	10782,56
638,47	10653,53
638,66	10661,73
638,85	10436,45
639,04	10536,80
639,23	10489,70
639,42	10362,72
639,62	10227,56
639,81	10264,42
640,00	10467,17
640,19	10172,26
640,38	10260,32
640,57	10133,35
640,76	9903,98
640,95	10205,03
641,15	10039,14
641,34	10309,47
641,53	10245,99
641,72	10348,39
641,91	10211,17
642,10	10055,53
642,29	9955,18
642,49	10108,77
642,68	9719,66
642,87	10145,64
643,06	10125,16
643,25	10028,90
643,44	10012,52
643,63	9820,01
643,82	9944,94
644,01	9875,31
644,21	9973,61
644,40	9613,17
644,59	9666,41
644,78	9906,02
644,97	9535,34
645,16	9682,80
645,35	9580,40
645,54	9609,07
645,73	9482,10
645,92	9639,79
646,12	9494,38
646,31	9236,34
646,50	9138,04
646,69	9488,24
646,88	9004,92
647,07	9199,48
647,26	9303,92
647,45	9244,53
647,64	9123,70
647,83	9056,12
648,02	9156,47
648,22	9035,64
648,41	8908,66
648,60	8853,37
648,79	8828,79
648,98	8953,72
649,17	8619,90
649,36	9052,02
649,55	9201,52
649,74	9015,16
649,93	8851,32
650,12	8943,48
650,31	9019,25
650,50	8912,76
650,69	8707,96
650,88	8718,20
651,08	8718,20
651,27	8621,95
651,46	8626,04
651,65	8757,11
651,84	8560,51
652,03	8757,11
652,22	8656,76
652,41	8638,33
652,60	8759,16
652,79	8468,35
652,98	8478,59
653,17	8626,04
653,36	8437,63
653,55	8589,18
653,74	8478,59
653,93	8492,93
654,12	8329,09
654,31	8087,43
654,50	7927,69
654,69	7858,06
654,88	7503,76
655,07	7557,00
655,26	7137,17
655,45	7137,17
655,64	6795,16
655,83	7071,64
656,02	7223,19
656,21	7204,75
656,40	7470,99
656,59	7518,09
656,78	7436,17
656,97	7704,46
657,17	7851,91
657,36	7772,04
657,55	7819,14
657,74	7782,28
657,93	7753,61
658,12	7751,56
658,31	7802,76
658,50	7677,83
658,69	7935,88
658,87	8007,56
659,06	7540,62
659,25	7847,82
659,44	7894,92
659,63	7759,75
659,82	7739,27
660,01	7618,44
660,20	7319,44
660,39	7731,08
660,58	7798,67
660,77	7640,97
660,96	7755,66
661,15	7604,11
661,34	7626,64
661,53	7636,88
661,72	7671,69
661,91	7747,47
662,10	7286,67
662,29	7487,37
662,48	7460,75
662,67	7294,86
662,86	7186,32
663,05	7212,95
663,24	7520,14
663,43	7384,98
663,62	7358,35
663,81	7339,92
664,00	7368,59
664,19	7309,20
664,38	7251,86
664,57	7255,95
664,76	7214,99
664,94	7315,34
665,13	6893,46
665,32	7094,16
665,51	7079,83
665,70	7028,63
665,89	6885,27
666,08	6971,29
666,27	6858,65
666,46	7036,82
666,65	7026,58
666,84	6776,73
667,03	6887,32
667,22	6832,02
667,41	7090,07
667,60	6756,25
667,78	6780,82
667,97	6592,41
668,16	6909,85
668,35	6821,78
668,54	6862,74
668,73	6807,45
668,92	6694,81
669,11	6795,16
669,30	6707,10
669,49	6692,76
669,68	6717,34
669,86	6764,44
670,05	6465,44
670,24	6641,56
670,43	6465,44
670,62	6338,46
670,81	6498,20
671,00	6373,28
671,19	6254,50
671,38	6281,12
671,57	6401,95
671,75	6309,79
671,94	6299,55
672,13	6399,90
672,32	6340,51
672,51	6326,18
672,70	6199,20
672,89	6229,92
673,08	6385,57
673,26	6170,53
673,45	6098,85
673,64	6291,36
673,83	6307,74
674,02	6164,39
674,21	6055,84
674,40	6090,66
674,59	6029,22
674,77	6223,78
674,96	5928,87
675,15	5869,48
675,34	6037,41
675,53	6053,80
675,72	5885,86
675,91	5842,85
676,09	5629,87
676,28	5810,09
676,47	5744,55
676,66	5758,89
676,85	5808,04
677,04	5713,83
677,22	5783,46
677,41	5918,63
677,60	5724,07
677,79	5824,42
677,98	5705,64
678,17	5611,43
678,36	5836,71
678,54	5642,15
678,73	5769,13
678,92	5525,42
679,11	5558,19
679,30	5599,15
679,48	5640,11
679,67	5717,93
679,86	5480,36
680,05	5519,28
680,24	5476,27
680,43	5529,52
680,61	5478,32
680,80	5498,80
680,99	5511,08
681,18	5402,54
681,37	5380,01
681,55	5453,74
681,74	5244,85
681,93	5355,44
682,12	5482,41
682,31	5384,11
682,49	5193,65
682,68	5152,69
682,87	5171,12
683,06	5167,03
683,25	5234,61
683,43	5339,05
683,62	5107,63
683,81	4995,00
684,00	5044,15
684,19	5124,02
684,37	5054,39
684,56	4874,17
684,75	5056,43
684,94	4878,26
685,12	4798,39
685,31	4847,54
685,50	4472,76
685,69	4353,98
685,88	4136,90
686,06	3803,08
686,25	3751,88
686,44	3727,30
686,63	3694,54
686,81	3549,13
687,00	3575,75
687,19	3946,44
687,38	3794,89
687,56	3723,21
687,75	3811,27
687,94	3911,62
688,13	3833,80
688,31	3827,65
688,50	3938,24
688,69	3921,86
688,88	3784,65
689,06	3825,61
689,25	3889,09
689,44	3831,75
689,63	3893,19
689,81	3889,09
690,00	3973,06
690,19	4204,48
690,38	4177,86
690,56	4161,47
690,75	4106,18
690,94	4020,16
691,13	4255,68
691,31	4419,52
691,50	4143,04
691,69	4016,07
691,87	4044,74
692,06	4159,42
692,25	4057,03
692,44	4239,30
692,62	4001,73
692,81	4192,19
693,00	4186,05
693,18	4134,85
693,37	4138,94
693,56	4046,79
693,75	4065,22
693,93	4110,27
694,12	4126,66
694,31	4020,16
694,49	4106,18
694,68	3928,00
694,87	3905,48
695,05	4124,61
695,24	3991,49
695,43	4106,18
695,62	4145,09
695,80	4251,58
695,99	4128,70
696,18	3983,30
696,36	3979,20
696,55	4147,14
696,74	4067,27
696,92	4026,31
697,11	3790,79
697,30	3866,57
697,48	3780,55
697,67	3874,76
697,86	3731,40
698,04	3870,66
698,23	3805,13
698,42	3811,27
698,60	3798,98
698,79	3862,47
698,98	3772,36
699,16	3682,25
699,35	3704,78
699,54	3659,72
699,72	3657,67
699,91	3672,01
700,10	3731,40
700,28	3727,30
700,47	3545,03
700,66	3585,99
700,84	3665,86
701,03	3725,26
701,21	3444,68
701,40	3418,06
701,59	3620,81
701,77	3491,79
701,96	3385,29
702,15	3452,88
702,33	3426,25
702,52	3690,44
702,71	3506,12
702,89	3512,27
703,08	3596,23
703,26	3555,27
703,45	3651,53
703,64	3362,76
703,82	3493,83
704,01	3528,65
704,20	3471,31
704,38	3413,96
704,57	3416,01
704,75	3381,20
704,94	3532,75
705,13	3434,44
705,31	3463,12
705,50	3452,88
705,68	3387,34
705,87	3407,82
706,06	3215,31
706,24	3536,84
706,43	3362,76
706,61	3313,61
706,80	3373,00
706,99	3477,45
707,17	3248,08
707,36	3243,98
707,54	3377,10
707,73	3317,71
707,92	3200,98
708,10	3342,29
708,29	3459,02
708,47	3313,61
708,66	3209,17
708,84	3489,74
709,03	3278,80
709,22	3323,85
709,40	3327,95
709,59	3282,89
709,77	3176,40
709,96	3225,55
710,14	3135,44
710,33	3168,21
710,52	3137,49
710,70	3143,63
710,89	3076,05
711,07	3133,39
711,26	3039,19
711,44	3203,02
711,63	3117,01
711,81	3219,41
712,00	2981,84
712,19	3018,71
712,37	3051,47
712,56	2969,55
712,74	3074,00
712,93	2916,31
713,11	3026,90
713,30	2996,18
713,48	2942,93
713,67	2854,87
713,85	2846,68
714,04	2734,04
714,22	3080,14
714,41	2938,84
714,59	2908,12
714,78	2846,68
714,97	2906,07
715,15	2779,09
715,34	2707,41
715,52	2830,29
715,71	2723,80
715,89	2658,26
716,08	2299,87
716,26	2502,62
716,45	2471,90
716,63	2414,56
716,82	2303,96
717,00	2379,74
717,19	2478,04
717,37	2273,25
717,56	2158,56
717,74	2279,39
717,93	2023,39
718,11	2240,48
718,30	2242,53
718,48	2131,94
718,67	2281,44
718,85	2279,39
719,04	2037,73
719,22	2162,66
719,41	2074,59
719,59	2078,69
719,78	2056,16
719,96	2220,00
720,15	2156,51
720,33	2322,40
720,52	2193,37
720,70	2254,81
720,88	2353,12
721,07	2340,83
721,25	2414,56
721,44	2531,29
721,62	2424,79
721,81	2289,63
721,99	2207,71
722,18	2269,15
722,36	2176,99
722,55	2093,02
722,73	2201,57
722,92	2088,93
723,10	2187,23
723,28	2088,93
723,47	2043,87
723,65	1976,29
723,84	2107,36
724,02	2191,33
724,21	1961,95
724,39	1906,66
724,58	1994,72
724,76	2093,02
724,94	2142,18
725,13	2179,04
725,31	2033,63
725,50	1955,81
725,68	1990,63
725,87	1863,65
726,05	1939,43
726,23	1972,19
726,42	1875,94
726,60	2090,98
726,79	1746,92
726,97	2047,97
727,16	1968,10
727,34	1951,71
727,52	2000,87
727,71	1933,28
727,89	1828,84
728,08	1843,17
728,26	1867,75
728,44	1804,26
728,63	1763,30
728,81	1773,54
729,00	1871,84
729,18	1873,89
729,36	2035,68
729,55	1787,88
729,73	1992,67
729,92	1935,33
730,10	1787,88
730,28	2017,25
730,47	1925,09
730,65	1886,18
730,84	1740,77
731,02	1877,99
731,20	1798,12
731,39	1886,18
731,57	1957,86
731,75	1961,95
731,94	1851,36
732,12	1824,74
732,31	1877,99
732,49	1980,39
732,67	1871,84
732,86	2052,06
733,04	1783,78
733,22	1892,32
733,41	1798,12
733,59	1892,32
733,78	1863,65
733,96	1869,80
734,14	1959,91
734,33	1771,49
734,51	1843,17
734,69	1824,74
734,88	1722,34
735,06	1816,55
735,24	1742,82
735,43	1732,58
735,61	1830,88
735,79	1646,57
735,98	1865,70
736,16	1746,92
736,34	1720,29
736,53	1753,06
736,71	1824,74
736,89	1851,36
737,08	1998,82
737,26	1783,78
737,44	1882,08
737,63	1980,39
737,81	1710,05
737,99	1787,88
738,18	1687,53
738,36	1673,19
738,54	1720,29
738,73	1708,01
738,91	1718,25
739,09	1783,78
739,28	1759,21
739,46	1601,51
739,64	1658,85
739,82	1554,41
740,01	1509,35
740,19	1615,85
740,37	1638,38
740,56	1669,09
740,74	1837,03
740,92	1683,43
741,11	1642,47
741,29	1603,56
741,47	1609,70
741,65	1613,80
741,84	1615,85
742,02	1456,11
742,20	1646,57
742,39	1705,96
742,57	1650,66
742,75	1648,61
742,93	1515,50
743,12	1486,83
743,30	1552,36
743,48	1687,53
743,67	1503,21
743,85	1552,36
744,03	1466,35
744,21	1558,50
744,40	1535,98
744,58	1476,59
744,76	1458,15
744,94	1417,19
745,13	1556,46
745,31	1552,36
745,49	1488,87
745,67	1458,15
745,86	1556,46
746,04	1445,87
746,22	1613,80
746,40	1667,05
746,59	1349,61
746,77	1431,53
746,95	1533,93
747,13	1531,88
747,32	1445,87
747,50	1525,74
747,68	1519,59
747,86	1337,32
748,05	1366,00
748,23	1312,75
748,41	1470,44
748,59	1411,05
748,77	1515,50
748,96	1269,74
749,14	1269,74
749,32	1372,14
749,50	1390,57
749,69	1308,65
749,87	1327,08
750,05	1204,21
750,23	1302,51
750,41	1310,70
750,60	1284,08
750,78	1216,49
750,96	1300,46
751,14	1333,23
751,32	1282,03
751,51	1400,81
751,69	1257,45
751,87	1226,73
752,05	1286,12
752,23	1132,53
752,42	1183,73
752,60	1200,11
752,78	1294,32
752,96	1292,27
753,14	1286,12
753,33	1177,58
753,51	1050,61
753,69	1279,98
753,87	1357,80
754,05	1241,07
754,23	1087,47
754,42	1314,80
754,60	1284,08
754,78	1267,69
754,96	1089,52
755,14	1138,67
755,32	1136,62
755,51	1148,91
755,69	1249,26
755,87	1261,55
756,05	1196,01
756,23	1198,06
756,41	1218,54
756,60	1069,04
756,78	1136,62
756,96	1247,21
757,14	1187,82
757,32	1216,49
757,50	1275,88
757,68	1030,13
757,87	999,41
758,05	1114,09
758,23	1083,38
758,41	884,72
758,59	716,79
758,77	696,31
758,95	514,04
759,14	466,94
759,32	315,39
759,50	223,23
759,68	352,25
759,86	274,43
760,04	270,33
760,22	221,18
760,40	462,84
760,59	372,73
760,77	380,92
760,95	585,72
761,13	651,25
761,31	548,86
761,49	661,49
761,67	612,34
761,85	458,74
762,03	493,56
762,22	425,98
762,40	514,04
762,58	462,84
762,76	485,37
762,94	555,00
763,12	511,99
763,30	559,10
763,48	671,73
763,66	511,99
763,84	563,19
764,02	610,29
764,21	702,45
764,39	767,99
764,57	745,46
764,75	786,42
764,93	774,13
765,11	790,52
765,29	788,47
765,47	872,43
765,65	866,29
765,83	911,35
766,01	882,67
766,19	964,59
766,37	952,31
766,56	1103,86
766,74	1052,66
766,92	847,86
767,10	1056,75
767,28	940,02
767,46	935,92
767,64	915,44
767,82	1028,08
768,00	1034,22
768,18	972,79
768,36	1032,18
768,54	1212,40
768,72	1058,80
768,90	1003,50
769,08	1122,29
769,26	1105,90
769,44	919,54
769,62	1019,89
769,80	1009,65
769,98	1179,63
770,16	1093,62
770,34	1009,65
770,52	1079,28
770,71	1054,70
770,89	1081,33
771,07	948,21
771,25	878,58
771,43	1105,90
771,61	1105,90
771,79	1009,65
771,97	1062,90
772,15	1095,66
772,33	1077,23
772,51	1013,74
772,69	929,78
772,87	952,31
773,05	899,06
773,23	911,35
773,41	909,30
773,59	1028,08
773,77	1038,32
773,95	796,66
774,13	808,95
774,31	911,35
774,49	860,15
774,67	854,00
774,85	825,33
775,03	776,18
775,21	872,43
775,39	827,38
775,57	929,78
775,75	737,27
775,93	837,62
776,10	821,24
776,28	833,52
776,46	890,87
776,64	872,43
776,82	669,69
777,00	995,31
777,18	767,99
777,36	684,02
777,54	774,13
777,72	811,00
777,90	944,11
778,08	708,60
778,26	808,95
778,44	659,45
778,62	673,78
778,80	618,49
778,98	667,64
779,16	665,59
779,34	835,57
779,52	665,59
779,70	575,48
779,88	661,49
780,05	731,12
780,23	698,36
780,41	675,83
780,59	716,79
780,77	690,17
780,95	702,45
781,13	487,42
781,31	690,17
781,49	763,89
781,67	692,21
781,85	542,71
782,03	739,32
782,21	548,86
782,39	774,13
782,56	557,05
782,74	587,77
782,92	522,23
783,10	641,01
783,28	727,03
783,46	667,64
783,64	661,49
783,82	663,54
784,00	493,56
784,18	630,77
784,35	606,20
784,53	598,01
784,71	587,77
784,89	485,37
785,07	610,29
785,25	503,80
785,43	598,01
785,61	419,83
785,79	696,31
785,96	606,20
786,14	497,66
786,32	585,72
786,50	616,44
786,68	651,25
786,86	612,34
787,04	561,14
787,22	520,18
787,39	417,79
787,57	618,49
787,75	579,58
787,93	577,53
788,11	561,14
788,29	542,71
788,47	516,09
788,65	464,89
788,82	442,36
789,00	638,97
789,18	546,81
789,36	368,63
789,54	477,18
789,72	526,33
789,89	511,99
790,07	509,94
790,25	356,35
790,43	434,17
790,61	321,53
790,79	466,94
790,96	366,59
791,14	532,47
791,32	464,89
791,50	454,65
791,68	499,70
791,86	520,18
792,03	301,05
792,21	454,65
792,39	511,99
792,57	346,11
792,75	456,70
792,93	372,73
793,10	413,69
793,28	458,75
793,46	473,08
793,64	409,59
793,82	419,83
793,99	290,81
794,17	481,27
794,35	401,40
794,53	399,35
794,71	329,72
794,88	491,51
795,06	389,11
795,24	473,08
795,42	380,92
795,60	372,73
795,77	409,59
795,95	286,72
796,13	382,97
796,31	616,44
796,49	403,45
796,66	350,20
796,84	419,83
797,02	397,31
797,20	358,39
797,37	397,31
797,55	577,53
797,73	339,96
797,91	333,82
798,08	503,80
798,26	364,54
798,44	360,44
798,62	346,11
798,80	247,80
798,97	356,35
799,15	346,11
799,33	401,40
799,51	358,39
799,68	450,55
799,86	428,03
800,04	417,79
800,22	401,40
800,39	446,46
800,57	425,98
800,75	335,87
800,93	264,19
801,10	444,41
801,28	364,54
801,46	348,15
801,63	444,41
801,81	376,83
801,99	434,17
802,17	225,28
802,34	374,78
802,52	395,26
802,70	376,83
802,88	227,32
803,05	471,03
803,23	294,91
803,41	311,29
803,58	395,26
803,76	303,10
803,94	366,59
804,12	339,96
804,29	319,48
804,47	378,87
804,65	256,00
804,82	387,07
805,00	382,97
805,18	356,35
805,35	299,00
805,53	260,09
805,71	352,25
805,89	307,20
806,06	325,63
806,24	294,91
806,42	331,77
806,59	374,78
806,77	462,84
806,95	274,43
807,12	235,52
807,30	317,44
807,48	380,92
807,65	229,37
807,83	372,73
808,01	301,05
808,18	243,71
808,36	147,45
808,54	243,71
808,71	401,40
808,89	370,68
809,07	303,10
809,24	272,38
809,42	333,82
809,60	335,87
809,77	237,56
809,95	366,59
810,13	202,75
810,30	243,71
810,48	319,48
810,66	247,80
810,83	313,34
811,01	235,52
811,18	219,13
811,36	180,22
811,54	317,44
811,71	313,34
811,89	260,09
812,07	276,48
812,24	247,80
812,42	286,72
812,59	208,89
812,77	237,56
812,95	360,44
813,12	346,11
813,30	178,17
813,48	169,98
813,65	204,80
813,83	258,04
814,00	198,65
814,18	266,24
814,36	243,71
814,53	286,72
814,71	237,56
814,88	251,90
815,06	208,89
815,24	217,08
815,41	235,52
815,59	237,56
815,76	266,24
815,94	231,42
816,12	219,13
816,29	157,69
816,47	231,42
816,64	210,94
816,82	288,76
817,00	192,51
817,17	131,07
817,35	241,66
817,52	129,02
817,70	225,28
817,87	212,99
818,05	155,65
818,23	217,08
818,40	251,90
818,58	217,08
818,75	266,24
818,93	364,54
819,10	198,65
819,28	159,74
819,46	149,50
819,63	258,04
819,81	204,80
819,98	206,84
820,16	188,41
820,33	221,18
820,51	235,52
820,68	276,48
820,86	114,69
821,03	337,91
821,21	221,18
821,39	194,56
821,56	227,32
821,74	63,49
821,91	225,28
822,09	188,41
822,26	151,55
822,44	178,17
822,61	88,06
822,79	229,37
822,96	71,68
823,14	223,23
823,31	208,89
823,49	194,56
823,66	274,43
823,84	194,56
824,01	155,65
824,19	231,42
824,36	169,98
824,54	200,70
824,71	53,25
824,89	239,61
825,06	157,69
825,24	215,04
825,41	280,57
825,59	155,65
825,76	194,56
825,94	112,64
826,11	139,26
826,29	133,12
826,46	245,76
826,64	247,80
826,81	157,69
826,99	129,02
827,16	219,13
827,34	135,17
827,51	133,12
827,69	194,56
827,86	116,73
828,04	122,88
828,21	260,09
828,39	227,32
828,56	225,28
828,74	61,44
828,91	141,31
829,09	102,40
829,26	77,82
829,43	176,13
829,61	149,50
829,78	169,98
829,96	286,72
830,13	149,50
830,31	116,73
830,48	186,37
830,66	239,61
830,83	249,85
831,01	141,31
831,18	167,93
831,35	217,08
831,53	180,22
831,70	196,60
831,88	143,36
832,05	190,46
832,23	102,40
832,40	49,15
832,57	155,65
832,75	141,31
832,92	106,49
833,10	184,32
833,27	141,31
833,45	258,04
833,62	133,12
833,79	129,02
833,97	159,74
834,14	145,41
834,32	77,82
834,49	198,65
834,66	260,09
834,84	143,36
835,01	245,76
835,19	159,74
835,36	147,45
835,53	184,32
835,71	153,60
835,88	161,79
836,06	77,82
836,23	106,49
836,40	172,03
836,58	149,50
836,75	239,61
836,93	47,10
837,10	178,17
837,27	169,98
837,45	208,89
837,62	116,73
837,79	212,99
837,97	71,68
838,14	217,08
838,32	124,93
838,49	172,03
838,66	157,69
838,84	153,60
839,01	182,27
839,18	169,98
839,36	96,25
839,53	157,69
839,70	104,45
839,88	135,17
840,05	100,35
840,23	167,93
840,40	28,67
840,57	217,08
840,75	137,21
840,92	151,55
841,09	104,45
841,27	118,78
841,44	219,13
841,61	137,21
841,79	247,80
841,96	172,03
842,13	174,08
842,31	-16,38
842,48	151,55
842,65	79,87
842,83	129,02
843,00	231,42
843,17	120,83
843,35	4,10
843,52	38,91
843,69	36,86
843,86	139,26
844,04	135,17
844,21	137,21
844,38	129,02
844,56	77,82
844,73	40,96
844,90	126,97
845,08	129,02
845,25	38,91
845,42	24,58
845,60	165,89
845,77	245,76
845,94	145,41
846,11	135,17
846,29	118,78
846,46	116,73
846,63	143,36
846,81	159,74
846,98	290,81
847,15	149,50
847,32	108,54
847,50	126,97
847,67	145,41
847,84	116,73
848,01	182,27
848,19	12,29
848,36	147,45
848,53	145,41
848,71	108,54
848,88	67,58
849,05	92,16
849,22	79,87
849,40	135,17
849,57	149,50
849,74	-16,38
849,91	114,69
850,09	24,58
850,26	104,45
850,43	69,63
850,60	94,21
850,78	124,93
850,95	67,58
851,12	96,25
851,29	96,25
851,47	75,77
851,64	73,73
851,81	135,17
851,98	61,44
852,15	110,59
852,33	116,73
852,50	77,82
852,67	116,73
852,84	55,30
853,02	45,06
853,19	86,01
853,36	6,14
853,53	86,01
853,70	-14,34
853,88	-4,10
854,05	-88,06
854,22	151,55
854,39	57,34
854,56	63,49
854,74	133,12
854,91	-6,14
855,08	81,92
855,25	57,34
855,42	59,39
855,60	67,58
855,77	86,01
855,94	124,93
856,11	92,16
856,28	114,69
856,46	147,45
856,63	221,18
856,80	38,91
856,97	122,88
857,14	51,20
857,31	108,54
857,49	36,86
857,66	71,68
857,83	28,67
858,00	22,53
858,17	-34,82
858,34	-12,29
858,52	71,68
858,69	124,93
858,86	155,65
859,03	-30,72
859,20	4,10
859,37	116,73
859,55	57,34
859,72	135,17
859,89	59,39
860,06	88,06
860,23	-108,54
860,40	47,10
860,57	20,48
860,75	38,91
860,92	83,97
861,09	32,77
861,26	65,53
861,43	4,10
861,60	-8,19
861,77	20,48
861,95	6,14
862,12	114,69
862,29	20,48
862,46	8,19
862,63	108,54
862,80	40,96
862,97	133,12
863,14	38,91
863,31	114,69
863,49	149,50
863,66	126,97
863,83	51,20
864,00	20,48
864,17	75,77
864,34	-10,24
864,51	96,25
864,68	75,77
864,85	161,79
865,02	-57,34
865,20	6,14
865,37	96,25
865,54	49,15
865,71	63,49
865,88	30,72
866,05	-8,19
866,22	96,25
866,39	118,78
866,56	108,54
866,73	143,36
866,90	88,06
867,07	57,34
867,25	188,41
867,42	-30,72
867,59	67,58
867,76	131,07
867,93	55,30
868,10	116,73
868,27	75,77
868,44	30,72
868,61	-22,53
868,78	-12,29
868,95	143,36
869,12	59,39
869,29	184,32
869,46	122,88
869,63	90,11
869,80	118,78
869,97	94,21
870,14	81,92
870,32	86,01
870,49	75,77
870,66	-8,19
870,83	34,82
871,00	45,06
871,17	30,72
871,34	96,25
871,51	88,06
871,68	53,25
871,85	155,65
872,02	38,91
872,19	8,19
872,36	69,63
872,53	108,54
872,70	63,49
872,87	73,73
873,04	92,16
873,21	77,82
873,38	-12,29
873,55	-18,43
873,72	59,39
873,89	22,53
874,06	-6,14
874,23	6,14
874,40	63,49
874,57	40,96
874,74	36,86
874,91	-26,62
875,08	28,67
875,25	96,25
875,42	55,30
875,59	14,34
875,76	94,21
875,93	26,62
876,10	30,72
876,27	71,68
876,44	-36,86
876,61	131,07
876,78	174,08
876,95	75,77
877,12	-12,29
877,29	108,54
877,46	63,49
877,62	14,34
877,79	139,26
877,96	10,24
878,13	10,24
878,30	88,06
878,47	-110,59
878,64	67,58
878,81	-12,29
878,98	4,10
879,15	10,24
879,32	4,10
879,49	71,68
879,66	28,67
879,83	49,15
880,00	77,82
880,17	-28,67
880,34	30,72
880,51	86,01
880,67	108,54
880,84	-24,58
881,01	2,05
881,18	65,53
881,35	36,86
881,52	65,54
881,69	102,40
881,86	65,54
882,03	-32,77
882,20	167,93
882,37	-32,77
882,54	22,53
882,70	-47,10
882,87	-8,19
883,04	-2,05
883,21	36,86
883,38	38,91
883,55	36,86
883,72	-4,10
883,89	43,01
884,06	57,34
884,23	22,53
884,39	-63,49
884,56	-10,24
884,73	-51,20
884,90	116,73
885,07	51,20
885,24	53,25
885,41	-49,15
885,58	47,10
885,74	71,68
885,91	51,20
886,08	-14,34
886,25	77,82
886,42	45,06
886,59	24,58
886,76	110,59
886,93	-69,63
887,09	169,98
887,26	118,78
887,43	10,24
887,60	12,29
887,77	92,16
887,94	71,68
888,10	53,25
888,27	30,72
888,44	22,53
888,61	-53,25
888,78	-6,14
888,95	30,72
889,12	-67,58
889,28	-6,14
889,45	-4,10
889,62	20,48
889,79	114,69
889,96	112,64
890,13	-8,19
890,29	71,68
890,46	30,72
890,63	40,96
890,80	14,34
890,97	47,10
891,13	63,49
891,30	-18,43
891,47	-8,19
891,64	49,15
891,81	61,44
891,98	28,67
892,14	12,29
892,31	24,58
892,48	-6,14
892,65	-40,96
892,82	-26,62
892,98	-2,05
893,15	47,10
893,32	26,62
>>>>>End Processed Spectral Data<<<<<
