SpectraSuite Datei
++++++++++++++++++++++++++++++++++++
Datum: Mon Feb 18 14:16:08 CET 2019
Benutzer: Admin
Dark-Spektrum vorhanden: Ja
Referenz-Spektrum vorhanden: Nein
Zahl der probierten Teilspektren: 1
Spektrometer: USB4F05832
Integrationszeit (usec): 100000 (USB4F05832)
Spektren Durchschnitt berechnet: 1 (USB4F05832)
Boxcar Glättung: 0 (USB4F05832)
Dunkelstromkorrektur: Nein (USB4F05832)
Puls/Lampe aktiviert: Nein (USB4F05832)
Correct for Detector Non-linearity: Nein (USB4F05832)
Streulichtkorrektur: Nein (USB4F05832)
Anzahl Pixel in verarbeitetem Spektrum: 3648
>>>>>Begin Processed Spectral Data<<<<<
177,54	43,01
177,75	43,01
177,97	43,01
178,19	83,97
178,41	116,73
178,63	108,54
178,85	40,96
179,07	96,25
179,29	100,35
179,51	59,39
179,73	49,15
179,95	22,53
180,17	106,49
180,39	79,87
180,61	65,54
180,83	155,65
181,05	-14,34
181,27	217,08
181,49	-4,10
181,71	77,82
181,92	227,32
182,14	88,06
182,36	186,37
182,58	77,82
182,80	196,61
183,02	88,06
183,24	118,78
183,46	200,70
183,68	16,38
183,90	204,80
184,12	235,52
184,34	71,68
184,56	137,21
184,78	106,49
185,00	47,10
185,21	28,67
185,43	122,88
185,65	30,72
185,87	129,02
186,09	167,93
186,31	139,26
186,53	143,36
186,75	88,06
186,97	133,12
187,19	143,36
187,41	83,97
187,63	92,16
187,84	16,38
188,06	57,34
188,28	65,54
188,50	92,16
188,72	145,41
188,94	122,88
189,16	129,02
189,38	102,40
189,60	143,36
189,82	151,55
190,03	86,01
190,25	129,02
190,47	102,40
190,69	217,08
190,91	116,73
191,13	157,69
191,35	155,65
191,57	92,16
191,79	149,50
192,01	79,87
192,22	149,50
192,44	106,49
192,66	137,21
192,88	182,27
193,10	196,61
193,32	161,79
193,54	133,12
193,76	307,20
193,98	81,92
194,19	47,10
194,41	137,21
194,63	110,59
194,85	153,60
195,07	63,49
195,29	141,31
195,51	57,34
195,73	124,93
195,94	63,49
196,16	81,92
196,38	131,07
196,60	151,55
196,82	129,02
197,04	112,64
197,26	79,87
197,48	182,27
197,69	133,12
197,91	215,04
198,13	151,55
198,35	133,12
198,57	108,54
198,79	55,30
199,01	169,98
199,22	98,30
199,44	153,60
199,66	143,36
199,88	116,73
200,10	100,35
200,32	145,41
200,54	104,45
200,75	219,13
200,97	98,30
201,19	98,30
201,41	161,79
201,63	135,17
201,85	53,25
202,06	124,93
202,28	32,77
202,50	59,39
202,72	219,13
202,94	59,39
203,16	223,23
203,38	141,31
203,59	200,70
203,81	198,65
204,03	90,11
204,25	149,50
204,47	155,65
204,69	202,75
204,90	176,13
205,12	96,25
205,34	59,39
205,56	38,91
205,78	100,35
206,00	104,45
206,21	145,41
206,43	165,89
206,65	81,92
206,87	51,20
207,09	184,32
207,30	182,27
207,52	182,27
207,74	122,88
207,96	292,86
208,18	174,08
208,40	122,88
208,61	106,49
208,83	86,01
209,05	108,54
209,27	188,41
209,49	57,34
209,70	88,06
209,92	69,63
210,14	176,13
210,36	28,67
210,58	26,62
210,79	98,30
211,01	155,65
211,23	112,64
211,45	108,54
211,67	73,73
211,88	30,72
212,10	77,82
212,32	194,56
212,54	51,20
212,76	79,87
212,97	176,13
213,19	77,82
213,41	104,45
213,63	147,45
213,85	167,93
214,06	167,93
214,28	-26,62
214,50	174,08
214,72	118,78
214,94	122,88
215,15	77,82
215,37	55,30
215,59	174,08
215,81	126,97
216,02	169,98
216,24	22,53
216,46	45,06
216,68	81,92
216,90	65,53
217,11	141,31
217,33	194,56
217,55	137,21
217,77	151,55
217,98	212,99
218,20	129,02
218,42	239,61
218,64	129,02
218,85	172,03
219,07	210,94
219,29	26,62
219,51	106,49
219,73	69,63
219,94	157,69
220,16	178,17
220,38	98,30
220,60	116,73
220,81	161,79
221,03	20,48
221,25	100,35
221,47	149,50
221,68	98,30
221,90	106,49
222,12	116,73
222,34	151,55
222,55	194,56
222,77	219,13
222,99	131,07
223,21	225,28
223,42	192,51
223,64	65,54
223,86	251,90
224,08	198,65
224,29	126,97
224,51	49,15
224,73	120,83
224,94	188,41
225,16	147,45
225,38	116,73
225,60	98,30
225,81	116,73
226,03	157,69
226,25	63,49
226,47	96,25
226,68	118,78
226,90	239,61
227,12	186,37
227,33	169,98
227,55	81,92
227,77	133,12
227,99	83,97
228,20	120,83
228,42	118,78
228,64	73,73
228,86	86,01
229,07	139,26
229,29	75,77
229,51	114,69
229,72	305,15
229,94	34,82
230,16	141,31
230,38	172,03
230,59	178,17
230,81	88,06
231,03	196,61
231,24	178,17
231,46	139,26
231,68	235,52
231,89	182,27
232,11	151,55
232,33	180,22
232,55	98,30
232,76	106,49
232,98	133,12
233,20	106,49
233,41	266,24
233,63	71,68
233,85	51,20
234,06	186,37
234,28	137,21
234,50	106,49
234,71	184,32
234,93	126,97
235,15	137,21
235,37	83,97
235,58	129,02
235,80	200,70
236,02	112,64
236,23	83,97
236,45	81,92
236,67	81,92
236,88	104,45
237,10	61,44
237,32	208,89
237,53	231,42
237,75	200,70
237,97	92,16
238,18	32,77
238,40	28,67
238,62	69,63
238,83	208,89
239,05	126,97
239,27	145,41
239,48	94,21
239,70	143,36
239,92	155,65
240,13	151,55
240,35	100,35
240,57	239,61
240,78	108,54
241,00	112,64
241,22	120,83
241,43	129,02
241,65	92,16
241,87	180,22
242,08	245,76
242,30	122,88
242,52	188,41
242,73	145,41
242,95	6,14
243,16	167,93
243,38	167,93
243,60	98,30
243,81	268,28
244,03	178,17
244,25	202,75
244,46	223,23
244,68	165,89
244,90	147,45
245,11	215,04
245,33	94,21
245,55	215,04
245,76	55,30
245,98	88,06
246,19	96,25
246,41	198,65
246,63	104,45
246,84	155,65
247,06	221,18
247,28	116,73
247,49	311,29
247,71	67,58
247,92	122,88
248,14	141,31
248,36	194,56
248,57	110,59
248,79	155,65
249,01	106,49
249,22	174,08
249,44	126,97
249,65	86,01
249,87	135,17
250,09	120,83
250,30	69,63
250,52	104,45
250,73	143,36
250,95	153,60
251,17	108,54
251,38	219,13
251,60	98,30
251,81	200,70
252,03	124,93
252,25	83,97
252,46	223,23
252,68	172,03
252,89	217,08
253,11	110,59
253,33	69,63
253,54	194,56
253,76	149,50
253,97	155,65
254,19	139,26
254,41	186,37
254,62	131,07
254,84	169,98
255,05	55,30
255,27	176,13
255,49	200,70
255,70	221,18
255,92	167,93
256,13	133,12
256,35	169,98
256,56	118,78
256,78	133,12
257,00	200,70
257,21	141,31
257,43	139,26
257,64	145,41
257,86	118,78
258,08	118,78
258,29	116,73
258,51	172,03
258,72	88,06
258,94	245,76
259,15	202,75
259,37	116,73
259,59	169,98
259,80	194,56
260,02	135,17
260,23	172,03
260,45	221,18
260,66	202,75
260,88	22,53
261,09	229,37
261,31	167,93
261,53	137,21
261,74	161,79
261,96	102,40
262,17	167,93
262,39	167,93
262,60	233,47
262,82	94,21
263,03	104,45
263,25	151,55
263,46	172,03
263,68	217,08
263,90	186,37
264,11	176,13
264,33	10,24
264,54	190,46
264,76	169,98
264,97	137,21
265,19	79,87
265,40	92,16
265,62	264,19
265,83	141,31
266,05	190,46
266,26	184,32
266,48	251,90
266,70	163,84
266,91	135,17
267,13	137,21
267,34	104,45
267,56	243,71
267,77	215,04
267,99	110,59
268,20	241,66
268,42	106,49
268,63	75,77
268,85	217,08
269,06	169,98
269,28	225,28
269,49	206,84
269,71	147,45
269,92	151,55
270,14	182,27
270,35	94,21
270,57	169,98
270,78	184,32
271,00	196,61
271,21	188,41
271,43	237,56
271,64	190,46
271,86	225,28
272,07	102,40
272,29	147,45
272,50	167,93
272,72	169,98
272,93	163,84
273,15	237,56
273,36	163,84
273,58	135,17
273,79	174,08
274,01	184,32
274,22	129,02
274,44	172,03
274,65	202,75
274,87	118,78
275,08	186,37
275,30	245,76
275,51	188,41
275,73	120,83
275,94	184,32
276,16	200,70
276,37	92,16
276,59	159,74
276,80	55,30
277,02	172,03
277,23	178,17
277,45	145,41
277,66	67,58
277,88	221,18
278,09	208,89
278,30	172,03
278,52	133,12
278,73	262,14
278,95	100,35
279,16	180,22
279,38	210,94
279,59	149,50
279,81	96,25
280,02	73,73
280,24	92,16
280,45	169,98
280,67	245,76
280,88	106,49
281,09	32,77
281,31	114,69
281,52	172,03
281,74	241,66
281,95	282,62
282,17	153,60
282,38	165,89
282,60	268,28
282,81	178,17
283,02	180,22
283,24	243,71
283,45	157,69
283,67	153,60
283,88	180,22
284,10	114,69
284,31	182,27
284,53	204,80
284,74	194,56
284,95	243,71
285,17	276,48
285,38	133,12
285,60	157,69
285,81	112,64
286,03	172,03
286,24	215,04
286,45	215,04
286,67	45,06
286,88	241,66
287,10	129,02
287,31	190,46
287,53	200,70
287,74	210,94
287,95	188,41
288,17	241,66
288,38	143,36
288,60	182,27
288,81	176,13
289,02	249,85
289,24	264,19
289,45	274,43
289,67	192,51
289,88	165,89
290,10	270,33
290,31	266,24
290,52	235,52
290,74	176,13
290,95	112,64
291,17	233,47
291,38	184,32
291,59	151,55
291,81	149,50
292,02	77,82
292,24	167,93
292,45	188,41
292,66	186,37
292,88	219,13
293,09	294,91
293,31	266,24
293,52	157,69
293,73	192,51
293,95	215,04
294,16	219,13
294,37	243,71
294,59	262,14
294,80	245,76
295,02	182,27
295,23	133,12
295,44	249,85
295,66	174,08
295,87	206,84
296,09	188,41
296,30	180,22
296,51	327,67
296,73	303,10
296,94	278,52
297,15	212,99
297,37	266,24
297,58	184,32
297,79	169,98
298,01	227,32
298,22	274,43
298,44	245,76
298,65	270,33
298,86	348,15
299,08	149,50
299,29	223,23
299,50	266,24
299,72	364,54
299,93	323,58
300,14	350,20
300,36	327,67
300,57	266,24
300,79	385,02
301,00	184,32
301,21	245,76
301,43	286,72
301,64	354,30
301,85	317,44
302,07	350,20
302,28	438,27
302,49	407,55
302,71	403,45
302,92	440,31
303,13	409,59
303,35	516,09
303,56	532,47
303,77	542,71
303,99	565,24
304,20	585,72
304,41	630,77
304,63	798,71
304,84	843,76
305,05	780,28
305,27	937,97
305,48	763,89
305,69	929,78
305,91	946,16
306,12	1009,65
306,33	1220,59
306,55	1267,69
306,76	1318,89
306,97	1581,03
307,19	1708,01
307,40	1769,45
307,61	1728,49
307,82	1781,73
308,04	1837,03
308,25	1777,64
308,46	1947,62
308,68	2019,30
308,89	2080,74
309,10	2047,97
309,32	2183,13
309,53	2283,49
309,74	2592,73
309,96	2826,20
310,17	3239,89
310,38	3508,17
310,59	3782,60
310,81	3993,54
311,02	3997,64
311,23	4208,58
311,45	4253,63
311,66	4235,20
311,87	4652,99
312,09	4716,47
312,30	4843,45
312,51	5144,50
312,72	5412,78
312,94	5472,17
313,15	5779,37
313,36	5672,87
313,58	5898,15
313,79	6061,99
314,00	6444,96
314,21	6424,48
314,43	6604,70
314,64	6717,34
314,85	6705,05
315,06	6631,32
315,28	6717,34
315,49	6494,11
315,70	6764,44
315,92	7288,72
316,13	7831,43
316,34	8650,62
316,55	8888,18
316,77	9465,71
316,98	9420,66
317,19	9285,49
317,40	9080,69
317,62	9121,65
317,83	9092,98
318,04	9310,07
318,25	9729,90
318,47	9930,60
318,68	10254,18
318,89	10418,02
319,11	10475,36
319,32	10823,51
319,53	11007,83
319,74	11994,95
319,96	12101,45
320,17	11861,84
320,38	12625,73
320,59	12209,99
320,81	12054,34
321,02	11626,32
321,23	12209,99
321,44	11931,47
321,65	11884,36
321,87	11851,60
322,08	11218,77
322,29	11384,66
322,50	11501,39
322,72	11966,28
322,93	12306,24
323,14	13102,90
323,35	13553,46
323,57	14280,49
323,78	14751,52
323,99	14843,68
324,20	14413,60
324,41	15388,44
324,63	15501,08
324,84	16023,31
325,05	16844,54
325,26	18093,80
325,48	18482,92
325,69	19816,15
325,90	20348,62
326,11	20391,62
326,32	20213,45
326,54	20727,49
326,75	19730,13
326,96	19838,67
327,17	18816,74
327,39	18448,10
327,60	18509,54
327,81	17886,96
328,02	17813,23
328,23	18353,90
328,45	19351,26
328,66	20315,85
328,87	21016,26
329,08	21800,63
329,29	22783,65
329,51	23301,79
329,72	22949,54
329,93	22775,46
330,14	22945,44
330,35	21905,07
330,56	22634,15
330,78	22113,97
330,99	22691,49
331,20	22875,81
331,41	23238,30
331,62	23172,77
331,84	24479,37
332,05	24145,55
332,26	23742,10
332,47	22896,29
332,68	23013,02
332,90	22779,56
333,11	21984,94
333,32	21943,99
333,53	22214,32
333,74	22185,65
333,95	22343,34
334,17	22838,95
334,38	22787,75
334,59	23092,90
334,80	23013,02
335,01	21788,34
335,22	21739,19
335,44	21339,83
335,65	20072,14
335,86	19877,58
336,07	19099,36
336,28	19451,61
336,49	19365,59
336,71	20070,09
336,92	19746,51
337,13	20733,64
337,34	20676,29
337,55	22048,43
337,76	21880,50
337,97	21857,97
338,19	22513,32
338,40	22595,24
338,61	23178,91
338,82	22865,57
339,03	23975,57
339,24	24526,47
339,45	24131,22
339,67	24956,55
339,88	24362,64
340,09	24213,13
340,30	22863,52
340,51	23346,84
340,72	23422,62
340,93	22986,40
341,15	23416,47
341,36	23619,22
341,57	24098,45
341,78	24198,80
341,99	24077,97
342,20	24653,45
342,41	25110,14
342,62	24534,67
342,84	23805,59
343,05	23342,75
343,26	21868,21
343,47	21325,50
343,68	20321,99
343,89	20252,36
344,10	21243,58
344,31	21558,97
344,53	22724,26
344,74	23355,04
344,95	23113,38
345,16	23344,80
345,37	23291,55
345,58	23109,28
345,79	24100,50
346,00	24245,90
346,21	24120,98
346,42	24557,19
346,64	23721,62
346,85	23803,54
347,06	23414,43
347,27	23709,33
347,48	23977,62
347,69	22961,83
347,90	23500,44
348,11	24014,48
348,32	23195,29
348,53	23166,62
348,75	23969,43
348,96	23668,37
349,17	25022,08
349,38	25495,16
349,59	25898,61
349,80	27188,83
350,01	26596,97
350,22	27453,02
350,43	26132,08
350,64	26750,57
350,85	25853,56
351,06	25388,67
351,28	25413,24
351,49	24671,88
351,70	25171,58
351,91	24241,81
352,12	24540,81
352,33	24028,82
352,54	26547,82
352,75	26201,71
352,96	26515,05
353,17	28485,20
353,38	28368,46
353,59	28696,14
353,80	29058,63
354,01	28687,95
354,22	28393,04
354,44	28708,43
354,65	27694,68
354,86	27686,49
355,07	27104,87
355,28	26947,17
355,49	25964,15
355,70	25323,13
355,91	24231,57
356,12	23008,93
356,33	22462,12
356,54	21898,93
356,75	21673,65
356,96	21808,82
357,17	20623,05
357,38	20072,14
357,59	18890,46
357,80	19029,73
358,01	19967,70
358,22	19906,26
358,43	22118,06
358,64	23635,61
358,85	25550,46
359,07	26273,39
359,28	27125,35
359,49	26986,08
359,70	26300,01
359,91	26103,41
360,12	25132,67
360,33	24190,61
360,54	24172,18
360,75	23797,40
360,96	23873,17
361,17	23316,12
361,38	24354,44
361,59	25747,06
361,80	26470,00
362,01	26383,98
362,22	27065,95
362,43	26963,56
362,64	26818,15
362,85	27149,92
363,06	26920,55
363,27	27295,33
363,48	27731,54
363,69	27645,53
363,90	27139,68
364,11	27747,93
364,32	27823,70
364,53	29277,76
364,74	30187,06
364,95	31686,17
365,16	31845,91
365,37	33316,36
365,58	33367,55
365,79	33129,99
366,00	33512,96
366,21	32740,88
366,42	32556,56
366,63	32128,53
366,84	31247,91
367,05	30756,39
367,26	30400,05
367,47	29443,65
367,68	29144,64
367,89	28874,31
368,10	27813,46
368,31	27031,14
368,52	28507,73
368,73	30727,72
368,94	31305,25
369,15	30514,73
369,36	31301,15
369,57	31032,87
369,78	30438,96
369,99	31061,54
370,20	30389,81
370,40	30885,42
370,61	32040,47
370,82	31968,79
371,03	31452,70
371,24	30922,28
371,45	30271,03
371,66	29177,41
371,87	28530,25
372,08	28989,00
372,29	28036,69
372,50	26447,47
372,71	26216,05
372,92	25958,00
373,13	25538,17
373,34	25181,82
373,55	25835,13
373,76	24956,55
373,97	25020,03
374,18	25509,50
374,39	26150,51
374,60	27899,48
374,81	28216,91
375,01	28634,70
375,22	29873,72
375,43	29130,31
375,64	30090,80
375,85	29257,28
376,06	30148,15
376,27	30801,45
376,48	32685,58
376,69	32355,86
376,90	34049,53
377,11	35974,62
377,32	35007,98
377,53	36308,44
377,74	36105,69
377,94	35059,18
378,15	34059,77
378,36	32058,90
378,57	32151,06
378,78	30080,57
378,99	30236,21
379,20	29996,60
379,41	30912,04
379,62	31753,76
379,83	32364,05
380,04	33181,19
380,25	32687,63
380,45	32065,05
380,66	31239,72
380,87	29322,82
381,08	27629,15
381,29	26705,51
381,50	24512,14
381,71	23467,67
381,92	22793,89
382,13	21702,32
382,34	19912,40
382,55	19977,94
382,75	19515,09
382,96	20049,61
383,17	20903,62
383,38	22861,48
383,59	23565,98
383,80	25255,55
384,01	26631,79
384,22	27866,71
384,43	27967,06
384,63	26990,18
384,84	27104,87
385,05	26402,41
385,26	26744,42
385,47	27217,50
385,68	27706,97
385,89	27661,91
386,10	27706,97
386,30	28104,28
386,51	26670,70
386,72	27608,67
386,93	26994,28
387,14	26850,92
387,35	27500,12
387,56	26990,18
387,77	26556,01
387,97	27565,66
388,18	28847,69
388,39	29099,59
388,60	30352,94
388,81	31061,54
389,02	32024,09
389,23	32837,13
389,43	32556,56
389,64	32945,67
389,85	32650,77
390,06	33721,85
390,27	35556,83
390,48	35321,32
390,69	35591,65
390,89	36488,66
391,10	34774,51
391,31	32812,56
391,52	31219,24
391,73	29775,42
391,94	26685,03
392,14	23905,94
392,35	21280,44
392,56	19517,14
392,77	19173,08
392,98	19144,41
393,19	20248,27
393,39	22427,31
393,60	24407,69
393,81	28155,47
394,02	29199,94
394,23	31512,10
394,44	32992,78
394,64	33154,57
394,85	35096,04
395,06	32572,94
395,27	31032,87
395,48	29025,86
395,69	25255,55
395,89	24417,93
396,10	23150,24
396,31	21905,07
396,52	24053,39
396,73	25681,53
396,93	29541,95
397,14	31262,24
397,35	35702,24
397,56	36904,40
397,77	39019,95
397,97	41117,07
398,18	43513,19
398,39	42499,45
398,60	43830,63
398,81	43476,33
399,01	45757,77
399,22	44410,20
399,43	45620,55
399,64	44705,11
399,85	44918,10
400,05	46148,93
400,26	45901,12
400,47	46021,95
400,68	47324,46
400,89	46081,34
401,09	48022,82
401,30	48856,34
401,51	47781,16
401,72	48000,29
401,93	47682,86
402,13	47457,58
402,34	46081,34
402,55	46406,97
402,76	46167,36
402,96	45741,38
403,17	44246,36
403,38	46294,33
403,59	44125,53
403,80	46955,83
404,00	44825,94
404,21	44424,54
404,42	45796,68
404,63	45456,71
404,83	45194,57
405,04	42671,48
405,25	44176,73
405,46	42925,42
405,66	41594,25
405,87	43371,88
406,08	43134,32
406,29	44457,31
406,49	43107,69
406,70	43236,72
406,91	42667,38
407,12	45645,13
407,32	43668,84
407,53	46791,99
407,74	46185,79
407,95	44725,59
408,15	46884,15
408,36	46091,58
408,57	46288,19
408,78	44879,19
408,98	44004,70
409,19	41510,28
409,40	43378,03
409,61	41629,06
409,81	42245,50
410,02	43435,37
410,23	44125,53
410,44	46894,39
410,64	46302,53
410,85	45911,36
411,06	47142,19
411,26	46153,02
411,47	46720,31
411,68	46890,29
411,89	45040,98
412,09	46220,61
412,30	45479,24
412,51	43490,66
412,72	44813,65
412,92	46630,20
413,13	45899,08
413,34	45475,15
413,54	45446,47
413,75	45423,95
413,96	45034,83
414,17	44027,23
414,37	45004,11
414,58	43988,32
414,79	45380,94
414,99	44039,52
415,20	45204,81
415,41	45393,23
415,61	46298,43
415,82	45634,89
416,03	43568,49
416,24	43967,84
416,44	44393,82
416,65	44135,77
416,86	44434,78
417,06	43343,21
417,27	42390,91
417,48	42433,91
417,68	43660,65
417,89	43681,13
418,10	42032,51
418,30	43380,07
418,51	42640,76
418,72	42249,60
418,92	43961,70
419,13	41166,22
419,34	42759,54
419,55	42349,95
419,75	43353,45
419,96	43199,85
420,17	45585,74
420,37	45137,23
420,58	43046,26
420,79	42618,23
420,99	45118,80
421,20	45170,00
421,41	43119,98
421,61	43007,34
421,82	40404,38
422,03	42020,22
422,23	40590,74
422,44	42263,93
422,65	41885,06
422,85	41766,27
423,06	42456,44
423,26	42700,15
423,47	43799,91
423,68	41616,77
423,88	43304,30
424,09	42167,68
424,30	41606,53
424,50	42620,28
424,71	42509,69
424,92	41254,28
425,12	40967,57
425,33	42913,14
425,54	43455,85
425,74	42777,97
425,95	41319,82
426,15	42276,22
426,36	39318,95
426,57	40766,87
426,77	39480,74
426,98	40703,38
427,19	40039,84
427,39	41231,75
427,60	39486,89
427,81	40101,28
428,01	38901,17
428,22	41153,93
428,42	36992,46
428,63	37467,59
428,84	36558,29
429,04	33951,23
429,25	32996,87
429,45	31352,35
429,66	31573,53
429,87	31811,10
430,07	31299,11
430,28	32564,75
430,49	33834,49
430,69	36980,17
430,90	37885,37
431,10	38772,14
431,31	39302,57
431,52	41397,64
431,72	39978,40
431,93	40226,20
432,13	41446,79
432,34	42892,66
432,55	40267,16
432,75	42425,72
432,96	40877,46
433,16	39351,72
433,37	40021,41
433,58	41112,97
433,78	41229,71
433,99	39056,81
434,19	41762,18
434,40	41977,22
434,60	43410,79
434,81	43529,58
435,02	43140,46
435,22	44561,75
435,43	43674,98
435,63	44350,81
435,84	45217,10
436,05	45182,29
436,25	42012,03
436,46	44383,58
436,66	44111,20
436,87	42599,80
437,07	40547,73
437,28	40324,50
437,48	40525,21
437,69	39296,42
437,90	39585,19
438,10	39646,63
438,31	39935,39
438,51	42730,87
438,72	41137,55
438,92	40983,95
439,13	41809,28
439,34	41756,03
439,54	42020,22
439,75	41287,05
439,95	41190,80
440,16	42550,65
440,36	43285,87
440,57	42554,74
440,77	44356,96
440,98	43666,79
441,18	43662,69
441,39	44023,14
441,60	45862,21
441,80	44615,00
442,01	42872,18
442,21	45090,13
442,42	43244,91
442,62	43427,18
442,83	43736,42
443,03	44133,73
443,24	44203,36
443,44	43996,51
443,65	44211,55
443,85	43695,46
444,06	43967,84
444,26	43543,91
444,47	42184,06
444,67	43476,33
444,88	41710,98
445,09	41039,25
445,29	41596,29
445,50	41815,43
445,70	41176,46
445,91	41989,50
446,11	41905,54
446,32	43257,20
446,52	43699,56
446,73	43285,87
446,93	44184,93
447,14	43156,85
447,34	43728,23
447,55	42530,17
447,75	43799,91
447,96	44244,32
448,16	42751,35
448,37	43767,14
448,57	42638,71
448,78	44041,57
448,98	43449,70
449,19	43947,36
449,39	45051,22
449,60	44594,52
449,80	45835,59
450,01	45985,09
450,21	45776,20
450,42	45788,49
450,62	44883,28
450,83	44535,13
451,03	44213,60
451,23	43740,52
451,44	43629,93
451,64	43105,65
451,85	41860,48
452,05	42278,27
452,26	41250,19
452,46	41340,30
452,67	40648,08
452,87	40625,56
453,08	41880,96
453,28	40238,49
453,49	42734,96
453,69	41518,47
453,90	42077,57
454,10	42302,84
454,31	41665,92
454,51	41653,64
454,71	41946,50
454,92	42227,07
455,12	42087,81
455,33	43242,86
455,53	43890,02
455,74	45860,16
455,94	45845,83
456,15	46599,48
456,35	47758,63
456,55	46011,71
456,76	47654,18
456,96	49300,75
457,17	45178,19
457,37	49769,74
457,58	46466,36
457,78	48749,85
457,99	47678,76
458,19	44463,45
458,39	47166,77
458,60	48567,58
458,80	48184,61
459,01	47148,34
459,21	46652,73
459,42	48579,87
459,62	45821,25
459,82	50341,12
460,03	48712,98
460,23	49237,26
460,44	49638,67
460,64	46314,81
460,85	50732,28
461,05	47506,73
461,25	47908,13
461,46	52079,85
461,66	50078,98
461,87	48680,22
462,07	49442,06
462,27	47011,12
462,48	46771,51
462,68	48145,70
462,89	47633,71
463,09	46898,48
463,29	47705,38
463,50	46755,13
463,70	48227,62
463,91	46056,77
464,11	46198,08
464,31	46830,90
464,52	47678,76
464,72	48669,98
464,93	47510,83
465,13	49108,24
465,33	47009,07
465,54	45942,08
465,74	45497,67
465,95	46816,57
466,15	46785,85
466,35	47732,01
466,56	47803,69
466,76	47942,95
466,96	47904,04
467,17	47643,94
467,37	48045,35
467,58	48016,68
467,78	47766,82
467,98	48729,37
468,19	47043,89
468,39	49366,29
468,59	49923,33
468,80	48772,38
469,00	47783,21
469,21	47093,04
469,41	47707,43
469,61	49243,41
469,82	46966,07
470,02	49325,33
470,22	50658,55
470,43	50183,43
470,63	49284,37
470,83	53210,32
471,04	51377,39
471,24	52421,86
471,45	51299,57
471,65	52315,36
471,85	51029,24
472,06	52514,01
472,26	52524,25
472,46	52106,47
472,67	52442,34
472,87	52890,84
473,07	52569,31
473,28	52835,55
473,48	54179,01
473,68	54301,89
473,89	54412,48
474,09	54564,03
474,29	53923,02
474,50	55321,78
474,70	54162,63
474,90	54625,47
475,11	54971,58
475,31	54523,07
475,51	54383,81
475,72	54582,46
475,92	54389,95
476,12	54676,67
476,33	55477,43
476,53	56671,39
476,73	57203,86
476,93	57984,14
477,14	57156,76
477,34	57355,41
477,54	57840,78
477,75	58031,24
477,95	57693,33
478,15	58684,54
478,36	58539,14
478,56	58610,82
478,76	59759,73
478,97	60245,10
479,17	58983,55
479,37	59327,61
479,57	59815,02
479,78	59825,26
479,98	59790,45
480,18	60460,13
480,39	61160,54
480,59	61283,42
480,79	61207,64
480,99	61439,06
481,20	61676,63
481,40	61754,45
481,60	61928,53
481,81	61135,96
482,01	61365,34
482,21	61281,37
482,41	61656,15
482,62	61654,10
482,82	61281,37
483,02	61690,96
483,23	61113,44
483,43	62022,73
483,63	60884,06
483,83	61152,35
484,04	62125,13
484,24	60277,86
484,44	60267,62
484,64	57574,55
484,85	56671,39
485,05	55555,25
485,25	55033,02
485,45	54363,33
485,66	54111,43
485,86	54783,16
486,06	55319,73
486,26	56423,59
486,47	57210,01
486,67	58377,35
486,87	59157,63
487,07	59812,98
487,28	59831,41
487,48	60142,70
487,68	60992,61
487,88	60511,33
488,09	61004,89
488,29	60785,76
488,49	62561,35
488,69	62596,16
488,90	63241,28
489,10	63001,66
489,30	63573,05
489,50	63661,11
489,71	63689,78
489,91	64103,47
490,11	63306,81
490,31	62917,70
490,52	62432,33
490,72	61881,42
490,92	62112,84
491,12	61185,11
491,32	61420,63
491,53	61766,74
491,73	61451,35
491,93	62657,60
492,13	62800,96
492,33	62385,22
492,54	62223,43
492,74	62669,89
492,94	62870,59
493,14	63151,16
493,35	63294,52
493,55	63788,08
493,75	63980,59
493,95	63624,25
494,15	63556,66
494,36	64074,80
494,56	63159,36
494,76	63497,27
494,96	63646,77
495,16	63611,96
495,37	63675,44
495,57	63738,93
495,77	63296,57
495,97	63233,08
496,17	64023,60
496,37	63527,99
496,58	63726,64
496,78	62041,17
496,98	62647,36
497,18	61772,88
497,38	61037,66
497,59	61328,47
497,79	61361,24
497,99	61142,11
498,19	61619,28
498,39	61221,98
498,59	61977,68
498,80	60929,12
499,00	60908,64
499,20	60693,60
499,40	59602,03
499,60	59430,01
499,80	59409,53
500,01	58793,09
500,21	58598,53
500,41	57592,98
500,61	57879,69
500,81	57126,04
501,01	57515,15
501,22	57210,01
501,42	57363,60
501,62	57152,66
501,82	57906,32
502,02	57689,23
502,22	57445,52
502,42	57201,82
502,63	57216,15
502,83	56073,38
503,03	55655,60
503,23	55915,69
503,43	55567,54
503,63	55200,95
503,83	55233,72
504,04	54944,95
504,24	55379,12
504,44	55428,27
504,64	55794,86
504,84	55604,40
505,04	55960,75
505,24	56175,78
505,44	55960,75
505,65	55555,25
505,85	55436,47
506,05	55293,11
506,25	55178,42
506,45	54621,37
506,65	54193,35
506,85	54475,97
507,05	53923,02
507,26	53789,90
507,46	53480,66
507,66	54521,02
507,86	54566,08
508,06	55456,95
508,26	55129,27
508,46	55538,86
508,66	54779,07
508,86	55002,30
509,06	54994,10
509,27	54549,70
509,47	54367,43
509,67	54652,09
509,87	54140,10
510,07	54703,29
510,27	55098,55
510,47	55207,09
510,67	55405,75
510,87	55375,03
511,07	55147,70
511,28	54815,93
511,48	53578,96
511,68	54336,71
511,88	54248,64
512,08	53589,20
512,28	53929,16
512,48	52727,00
512,68	52718,81
512,88	52327,65
513,08	52796,63
513,28	52761,82
513,48	52231,40
513,68	52442,34
513,89	52585,69
514,09	52950,23
514,29	53523,66
514,49	53322,96
514,69	53214,42
514,89	53116,12
515,09	52630,75
515,29	52489,44
515,49	50978,04
515,69	49507,60
515,89	48594,20
516,09	47967,52
516,29	47721,77
516,49	47930,66
516,69	48436,51
516,89	48606,49
517,09	48762,14
517,29	48413,98
517,50	48698,65
517,70	49145,11
517,90	49356,05
518,10	49552,65
518,30	50855,16
518,50	50476,29
518,70	51041,53
518,90	52704,48
519,10	52595,93
519,30	53140,69
519,50	53664,97
519,70	53208,28
519,90	53404,88
520,10	53697,74
520,30	53583,05
520,50	53734,60
520,70	54480,06
520,90	54215,88
521,10	54271,17
521,30	54373,57
521,50	54351,04
521,70	53818,57
521,90	53664,97
522,10	53994,70
522,30	53261,52
522,50	53834,95
522,70	53845,19
522,90	54947,00
523,10	54588,61
523,30	55731,37
523,50	55221,43
523,70	55829,68
523,90	55383,22
524,10	55499,95
524,30	54949,05
524,50	55391,41
524,70	54731,96
524,90	54830,27
525,10	54113,48
525,30	52632,80
525,50	52657,37
525,70	51629,29
525,90	50345,22
526,10	50201,86
526,30	50369,79
526,50	50869,50
526,70	51301,62
526,90	51625,20
527,10	51838,18
527,30	52978,90
527,50	53662,93
527,70	53613,77
527,90	54316,23
528,10	54346,95
528,30	54633,66
528,50	54779,07
528,70	54303,94
528,90	54408,39
529,10	54131,91
529,30	53863,63
529,50	54840,51
529,70	54424,77
529,90	54521,02
530,10	55133,37
530,29	54635,71
530,49	55026,87
530,69	54607,04
530,89	54101,19
531,09	53599,44
531,29	52550,88
531,49	52944,09
531,69	52192,48
531,89	51584,24
532,09	51614,96
532,29	51309,81
532,49	51461,36
532,69	51786,99
532,89	51991,78
533,09	51518,70
533,29	52120,80
533,49	51449,07
533,68	51842,28
533,88	52534,49
534,08	52620,51
534,28	52284,64
534,48	52825,31
534,68	52939,99
534,88	52673,76
535,08	52882,65
535,28	52421,86
535,48	52276,45
535,68	51641,58
535,88	50644,22
536,08	50953,46
536,27	50892,02
536,47	50687,23
536,67	51442,93
536,87	50926,84
537,07	50660,60
537,27	50736,38
537,47	50926,84
537,67	50423,04
537,87	50279,68
538,07	50695,42
538,27	49542,41
538,46	49517,84
538,66	49478,92
538,86	48631,07
539,06	48530,72
539,26	48031,01
539,46	47498,54
539,66	47211,82
539,86	47568,17
540,06	47322,41
540,25	47306,03
540,45	47234,35
540,65	47476,01
540,85	47643,94
541,05	48213,28
541,25	48031,01
541,45	47998,24
541,65	47471,92
541,85	47428,91
542,04	47656,23
542,24	47439,15
542,44	47684,90
542,64	47363,37
542,84	47609,13
543,04	47314,22
543,24	47672,62
543,43	47248,69
543,63	47426,86
543,83	47365,42
544,03	46699,83
544,23	46873,91
544,43	47308,08
544,63	46392,64
544,82	47660,33
545,02	46357,82
545,22	47113,52
545,42	45890,88
545,62	47324,46
545,82	46429,50
546,02	46032,19
546,21	46185,79
546,41	45503,82
546,61	44805,46
546,81	45548,87
547,01	44506,46
547,21	44827,99
547,40	44711,25
547,60	44776,79
547,80	44764,50
548,00	45151,57
548,20	45395,28
548,40	44512,60
548,59	45040,98
548,79	45206,86
548,99	44973,39
549,19	44762,45
549,39	44430,68
549,59	44223,84
549,78	43527,53
549,98	43916,64
550,18	43998,56
550,38	43642,21
550,58	43390,31
550,77	43509,10
550,97	43953,51
551,17	43269,48
551,37	43578,73
551,57	43300,20
551,76	42816,88
551,96	42610,04
552,16	42030,46
552,36	42995,06
552,56	42558,84
552,75	42204,54
552,95	42683,76
553,15	42485,11
553,35	42444,15
553,55	41942,40
553,74	42765,68
553,94	42411,38
554,14	41823,62
554,34	42153,34
554,54	41713,03
554,73	42069,37
554,93	41575,81
555,13	41786,75
555,33	41268,62
555,53	41250,19
555,72	40308,12
555,92	40453,53
556,12	40353,18
556,32	40162,72
556,51	40078,75
556,71	40322,46
556,91	39599,52
557,11	39325,10
557,30	39572,90
557,50	39128,49
557,70	38766,00
557,90	38931,89
558,10	38131,13
558,29	38139,32
558,49	38354,36
558,69	38200,76
558,89	37660,10
559,08	37598,66
559,28	38196,67
559,48	37963,20
559,68	38114,75
559,87	38376,89
560,07	38526,39
560,27	38446,52
560,47	38454,71
560,66	38290,87
560,86	37703,10
561,06	37623,23
561,25	37656,00
561,45	37639,62
561,65	37647,81
561,85	37488,07
562,04	37363,14
562,24	37324,23
562,44	37703,10
562,64	37354,95
562,83	37115,34
563,03	37266,89
563,23	37197,26
563,42	37240,26
563,62	37019,08
563,82	37109,19
564,02	37180,87
564,21	36670,93
564,41	36406,74
564,61	36378,07
564,80	35866,08
565,00	35505,63
565,20	35470,82
565,40	35483,11
565,59	35716,58
565,79	35872,22
565,99	35784,16
566,18	35718,62
566,38	35659,23
566,58	35689,95
566,78	35337,70
566,97	35286,50
567,17	35714,53
567,37	35499,49
567,56	35007,98
567,76	34631,15
567,96	35241,45
568,15	34733,55
568,35	34670,06
568,55	34596,34
568,74	34340,34
568,94	34668,02
569,14	33838,59
569,33	33510,91
569,53	33641,98
569,73	33607,17
569,92	33275,40
570,12	32955,91
570,32	33224,20
570,52	32753,16
570,71	33025,54
570,91	33084,94
571,11	33502,72
571,30	33447,43
571,50	33498,62
571,70	33519,10
571,89	33400,32
572,09	34106,87
572,28	33803,77
572,48	33459,71
572,68	33725,95
572,87	33885,69
573,07	33811,96
573,27	33467,91
573,46	33537,54
573,66	33129,99
573,86	33158,66
574,05	33558,02
574,25	32771,60
574,45	32478,74
574,64	32550,42
574,84	32146,97
575,04	32421,39
575,23	32450,06
575,43	32423,44
575,62	32585,23
575,82	32681,49
576,02	31837,72
576,21	32200,21
576,41	32362,00
576,61	32394,77
576,80	31929,88
577,00	31700,51
577,19	31893,02
577,39	31448,61
577,59	31444,51
577,78	31843,87
577,98	31135,27
578,18	31700,51
578,37	31448,61
578,57	31583,77
578,76	31665,69
578,96	31419,94
579,16	31884,83
579,35	31854,11
579,55	31505,95
579,74	31655,45
579,94	31585,82
580,14	31956,50
580,33	32093,72
580,53	31778,33
580,72	31639,07
580,92	32112,15
581,12	31952,41
581,31	32103,96
581,51	32063,00
581,70	31809,05
581,90	32056,85
582,10	31579,68
582,29	31378,98
582,49	31778,33
582,68	32003,61
582,88	32140,82
583,07	31903,26
583,27	31940,12
583,47	32095,77
583,66	31868,44
583,86	31606,30
584,05	31770,14
584,25	31264,29
584,44	30725,68
584,64	30596,65
584,84	30762,54
585,03	30795,31
585,23	30660,14
585,42	30795,31
585,62	30469,68
585,81	30520,88
586,01	30651,95
586,20	30719,53
586,40	30852,65
586,60	30225,97
586,79	30719,53
586,99	30185,01
587,18	30201,40
587,38	30135,86
587,57	29292,10
587,77	28780,10
587,96	28042,84
588,16	27557,47
588,35	27385,44
588,55	27430,49
588,75	26836,58
588,94	27227,74
589,14	27602,52
589,33	27803,22
589,53	28210,77
589,72	27784,79
589,92	28677,71
590,11	28386,89
590,31	28720,71
590,50	28995,14
590,70	28362,32
590,89	28239,44
591,09	28468,81
591,28	28155,47
591,48	28505,68
591,67	28264,02
591,87	28178,00
592,06	28288,59
592,26	28137,04
592,45	28106,32
592,65	28425,81
592,84	28536,40
593,04	28110,42
593,23	27733,59
593,43	28100,18
593,62	27741,78
593,82	27780,70
594,01	27219,55
594,21	27739,74
594,40	27188,83
594,60	27379,29
594,79	27385,44
594,99	27344,48
595,18	27590,24
595,38	27176,55
595,57	27362,91
595,77	27616,86
595,96	27676,25
596,16	27539,04
596,35	27258,46
596,55	26875,49
596,74	27278,94
596,94	26842,73
597,13	26365,55
597,33	26642,03
597,52	26424,94
597,72	26447,47
597,91	26472,04
598,11	26177,14
598,30	26254,96
598,50	26449,52
598,69	26078,83
598,88	26023,54
599,08	25888,37
599,27	26017,40
599,47	25652,86
599,66	25478,78
599,86	25900,66
600,05	25679,48
600,25	25519,74
600,44	25343,61
600,64	25212,54
600,83	25173,63
601,02	25300,61
601,22	25220,74
601,41	24964,74
601,61	25106,05
601,80	24899,20
602,00	25380,48
602,19	24798,85
602,38	25126,53
602,58	25104,00
602,77	24835,72
602,97	25056,90
603,16	25284,22
603,36	24741,51
603,55	25247,36
603,74	24598,15
603,94	24882,82
604,13	24450,70
604,33	24469,13
604,52	24530,57
604,72	24010,39
604,91	24237,71
605,10	24510,09
605,30	23883,41
605,49	23957,14
605,69	24286,86
605,88	23660,18
606,07	23733,91
606,27	23991,95
606,46	23531,16
606,66	23559,83
606,85	23359,13
607,04	23287,45
607,24	22984,35
607,43	23156,38
607,63	23367,32
607,82	22988,45
608,01	22816,42
608,21	22779,56
608,40	22738,60
608,60	22212,27
608,79	22611,62
608,98	22273,71
609,18	22546,09
609,37	22372,01
609,57	21853,87
609,76	22314,67
609,95	22302,38
610,15	22075,06
610,34	21886,64
610,53	21849,78
610,73	21892,79
610,92	22001,33
611,11	21862,07
611,31	21939,89
611,50	21679,80
611,70	21520,06
611,89	21728,95
612,08	21685,94
612,28	21751,48
612,47	21515,96
612,66	21307,07
612,86	21302,97
613,05	21266,11
613,24	21305,02
613,44	21339,83
613,63	21446,33
613,82	21532,34
614,02	21356,22
614,21	21180,09
614,41	21561,02
614,60	21167,80
614,79	21143,23
614,99	21219,00
615,18	21171,90
615,37	20842,18
615,57	21040,83
615,76	20891,33
615,95	20817,60
616,15	20645,57
616,34	21182,14
616,53	21339,83
616,73	21302,97
616,92	21206,72
617,11	21378,75
617,30	21458,62
617,50	21536,44
617,69	21806,77
617,88	21798,58
618,08	21124,80
618,27	21892,79
618,46	21630,65
618,66	21614,26
618,85	21761,72
619,04	21358,27
619,24	22081,20
619,43	21900,98
619,62	21913,27
619,82	21974,70
620,01	22085,30
620,20	21958,32
620,39	21798,58
620,59	21724,85
620,78	21538,49
620,97	21546,68
621,17	21352,12
621,36	21997,23
621,55	21597,88
621,74	21808,82
621,94	21657,27
622,13	21814,96
622,32	21425,85
622,52	21454,52
622,71	21475,00
622,90	21112,51
623,09	21212,86
623,29	21296,83
623,48	21120,70
623,67	21003,97
623,86	20911,81
624,06	21198,52
624,25	20584,13
624,44	21003,97
624,64	20498,12
624,83	20874,95
625,02	20592,33
625,21	20876,99
625,41	21370,55
625,60	20827,84
625,79	20772,55
625,98	20735,68
626,18	20960,96
626,37	20547,27
626,56	20326,09
626,75	20293,32
626,95	19949,26
627,14	20037,33
627,33	20217,55
627,52	19912,40
627,72	19887,82
627,91	19943,12
628,10	20006,61
628,29	19994,32
628,49	19885,78
628,68	19697,36
628,87	19394,26
629,06	20020,94
629,25	19683,03
629,45	19644,12
629,64	19799,76
629,83	19810,00
630,02	19830,48
630,22	19726,04
630,41	19482,33
630,60	19379,93
630,79	19230,43
630,98	19467,99
631,18	19422,94
631,37	19062,49
631,56	19766,99
631,75	19320,54
631,94	19566,29
632,14	19277,53
632,33	19220,19
632,52	19193,56
632,71	19470,04
632,90	19265,24
633,10	19211,99
633,29	18929,38
633,48	19394,26
633,67	19424,98
633,86	19369,69
634,06	19259,10
634,25	19498,71
634,44	19117,79
634,63	18892,51
634,82	18839,26
635,02	18650,85
635,21	18734,82
635,40	18724,58
635,59	18560,74
635,78	18659,04
635,97	18724,58
636,17	18532,07
636,36	19132,12
636,55	19066,59
636,74	18851,55
636,93	18321,13
637,12	19064,54
637,32	19187,42
637,51	18738,91
637,70	18960,09
637,89	18988,77
638,08	19050,21
638,27	18689,76
638,47	18587,36
638,66	18360,04
638,85	18220,78
639,04	18224,87
639,23	18028,27
639,42	18419,43
639,62	18317,03
639,81	18175,72
640,00	17633,01
640,19	17874,67
640,38	17704,69
640,57	17813,23
640,76	17633,01
640,95	17770,22
641,15	17774,32
641,34	17622,77
641,53	17729,27
641,72	17997,55
641,91	17620,72
642,10	17649,39
642,29	17164,03
642,49	17600,24
642,68	17125,11
642,87	17518,32
643,06	17520,37
643,25	17614,58
643,44	17186,55
643,63	17479,41
643,82	17366,77
644,01	17276,66
644,21	17413,88
644,40	17094,40
644,59	17030,91
644,78	17123,07
644,97	16889,60
645,16	17045,24
645,35	16789,25
645,54	17442,55
645,73	16740,10
645,92	17084,16
646,12	16586,50
646,31	16920,32
646,50	16860,93
646,69	16834,30
646,88	16453,38
647,07	16504,58
647,26	16504,58
647,45	16350,98
647,64	16348,93
647,83	16666,37
648,02	16508,68
648,22	16160,52
648,41	16350,98
648,60	16240,39
648,79	16021,26
648,98	16256,78
649,17	15970,06
649,36	16252,68
649,55	16148,23
649,74	15904,53
649,93	15894,29
650,12	16023,31
650,31	16051,98
650,50	15720,21
650,69	15929,10
650,88	15963,92
651,08	15746,83
651,27	15587,09
651,46	16166,67
651,65	15914,77
651,84	15818,51
652,03	15957,77
652,22	15621,91
652,41	15814,41
652,60	15992,59
652,79	15759,12
652,98	15652,63
653,17	15720,21
653,36	15765,26
653,55	15488,79
653,74	15392,53
653,93	15402,77
654,12	15105,82
654,31	15267,61
654,50	14767,90
654,69	14468,90
654,88	14333,73
655,07	13905,71
655,26	13438,77
655,45	13272,89
655,64	13051,70
655,83	13457,20
656,02	13084,47
656,21	13512,50
656,40	13823,79
656,59	14196,52
656,78	14010,15
656,97	14305,06
657,17	14130,98
657,36	14112,55
657,55	14284,58
657,74	14444,32
657,93	14339,88
658,12	14288,68
658,31	14610,21
658,50	14305,06
658,69	14546,72
658,87	14679,84
659,06	14313,25
659,25	14505,76
659,44	14505,76
659,63	14446,37
659,82	14552,87
660,01	14505,76
660,20	14364,45
660,39	14354,21
660,58	14778,14
660,77	14540,58
660,96	14612,26
661,15	14473,00
661,34	14493,47
661,53	14403,36
661,72	14372,64
661,91	14362,40
662,10	13846,32
662,29	14042,92
662,48	14020,39
662,67	13909,80
662,86	13973,29
663,05	13924,14
663,24	13932,33
663,43	13842,22
663,62	13580,08
663,81	13760,30
664,00	13655,86
664,19	13874,99
664,38	13799,21
664,57	13532,98
664,76	13752,11
664,94	13705,01
665,13	13582,13
665,32	13485,87
665,51	13653,81
665,70	13363,00
665,89	13289,27
666,08	13348,66
666,27	13340,47
666,46	13446,96
666,65	13379,38
666,84	13334,32
667,03	13604,66
667,22	13422,39
667,41	13172,54
667,60	13186,87
667,78	13229,88
667,97	13369,14
668,16	13133,62
668,35	13080,38
668,54	13225,78
668,73	13188,92
668,92	12941,11
669,11	12894,01
669,30	12756,80
669,49	12971,83
669,68	13111,10
669,86	12697,41
670,05	12889,92
670,24	12472,13
670,43	12611,39
670,62	12447,55
670,81	12451,65
671,00	12562,24
671,19	12351,30
671,38	12234,57
671,57	12136,26
671,75	12291,91
671,94	12492,61
672,13	12472,13
672,32	12443,46
672,51	12365,64
672,70	12349,25
672,89	12154,69
673,08	12064,58
673,26	12425,03
673,45	12195,65
673,64	12406,59
673,83	12246,85
674,02	12048,20
674,21	12140,36
674,40	12177,22
674,59	12054,34
674,77	12115,78
674,96	11980,62
675,15	12171,08
675,34	12126,02
675,53	11927,37
675,72	11898,70
675,91	11999,05
676,09	11906,89
676,28	11923,27
676,47	11720,53
676,66	11542,35
676,85	11437,91
677,04	11720,53
677,22	11618,13
677,41	11700,05
677,60	11591,50
677,79	11509,58
677,98	11718,48
678,17	11372,37
678,36	11648,85
678,54	11515,73
678,73	11652,94
678,92	11378,51
679,11	11284,31
679,30	11294,55
679,48	11388,75
679,67	11382,61
679,86	11349,84
680,05	11067,22
680,24	11075,42
680,43	11206,48
680,61	11210,58
680,80	11188,05
680,99	10964,82
681,18	10930,01
681,37	10993,50
681,55	11175,77
681,74	10755,93
681,93	10938,20
682,12	11110,23
682,31	10907,48
682,49	10899,29
682,68	10712,92
682,87	10655,58
683,06	10602,33
683,25	10585,95
683,43	10616,67
683,62	10774,36
683,81	10686,30
684,00	10739,55
684,19	10561,37
684,37	10473,31
684,56	10428,26
684,75	10305,38
684,94	10430,30
685,12	10329,95
685,31	10078,05
685,50	9795,43
685,69	9541,49
685,88	8847,22
686,06	8363,90
686,25	8023,94
686,44	8023,94
686,63	8025,99
686,81	7796,62
687,00	8028,04
687,19	8191,88
687,38	8257,41
687,56	8267,65
687,75	8116,10
687,94	8142,72
688,13	8093,57
688,31	8116,10
688,50	8109,96
688,69	8214,40
688,88	7964,55
689,06	8298,37
689,25	8275,84
689,44	8523,65
689,63	8580,99
689,81	8535,93
690,00	8718,20
690,19	8652,67
690,38	8906,62
690,56	8626,04
690,75	8763,26
690,94	8388,48
691,13	8824,70
691,31	8904,57
691,50	8937,34
691,69	8996,73
691,87	9060,21
692,06	9037,69
692,25	8935,29
692,44	9097,08
692,62	8941,43
692,81	9152,37
693,00	8925,05
693,18	9183,09
693,37	8877,94
693,56	9117,56
693,75	9250,67
693,93	9281,39
694,12	9105,27
694,31	8882,04
694,49	8871,80
694,68	9062,26
694,87	8687,48
695,05	9115,51
695,24	8740,73
695,43	8873,85
695,62	9062,26
695,80	9135,99
695,99	9049,97
696,18	8927,10
696,36	8925,05
696,55	8877,94
696,74	8923,00
696,92	8966,01
697,11	8896,38
697,30	8869,75
697,48	8730,49
697,67	8925,05
697,86	8886,14
698,04	8787,83
698,23	8824,70
698,42	8685,44
698,60	8611,71
698,79	8652,67
698,98	8449,92
699,16	8404,86
699,35	8554,37
699,54	8476,54
699,72	8499,07
699,91	8519,55
700,10	8347,52
700,28	8327,04
700,47	8277,89
700,66	8413,06
700,84	8257,41
701,03	8408,96
701,21	8255,36
701,40	8361,86
701,59	8107,91
701,77	8359,81
701,96	8163,20
702,15	8251,27
702,33	8265,60
702,52	8263,55
702,71	8167,30
702,89	8292,23
703,08	8353,66
703,26	8138,63
703,45	8380,29
703,64	8206,21
703,82	8245,12
704,01	8081,28
704,20	8062,85
704,38	8234,88
704,57	8208,26
704,75	8355,71
704,94	8279,94
705,13	8259,46
705,31	8458,11
705,50	8464,25
705,68	8234,88
705,87	8228,74
706,06	8214,40
706,24	8390,53
706,43	8085,38
706,61	8157,06
706,80	8204,16
706,99	8353,66
707,17	7921,54
707,36	7989,13
707,54	8073,09
707,73	7858,06
707,92	8060,80
708,10	7987,08
708,29	8054,66
708,47	8062,85
708,66	7874,44
708,84	7784,33
709,03	8042,37
709,22	7745,42
709,40	7985,03
709,59	7841,67
709,77	7802,76
709,96	7868,30
710,14	7833,48
710,33	7698,31
710,52	7731,08
710,70	7739,27
710,89	7733,13
711,07	7600,01
711,26	7679,88
711,44	7649,16
711,63	7501,71
711,81	7667,59
712,00	7464,85
712,19	7274,38
712,37	7575,44
712,56	7548,81
712,74	7335,82
712,93	7448,46
713,11	7540,62
713,30	7350,16
713,48	7290,77
713,67	7364,50
713,85	7331,73
714,04	7190,42
714,22	7694,22
714,41	7212,95
714,59	7139,22
714,78	7374,74
714,97	7374,74
715,15	6983,57
715,34	7133,08
715,52	6926,23
715,71	7030,68
715,89	6803,35
716,08	6610,84
716,26	6444,96
716,45	6477,73
716,63	6477,73
716,82	6000,55
717,00	6129,57
717,19	6234,02
717,37	6117,28
717,56	5816,23
717,74	5832,62
717,93	5623,72
718,11	5693,35
718,30	5754,79
718,48	5593,00
718,67	5455,79
718,85	5789,61
719,04	5560,24
719,22	5396,40
719,41	5570,48
719,59	5394,35
719,78	5482,41
719,96	5752,74
720,15	5773,22
720,33	6109,09
720,52	6070,18
720,70	5955,49
720,88	6115,23
721,07	6143,91
721,25	6016,93
721,44	6059,94
721,62	6291,36
721,81	6041,51
721,99	6168,48
722,18	6311,84
722,36	5992,36
722,55	6098,85
722,73	5642,15
722,92	5814,18
723,10	5988,26
723,28	5961,64
723,47	5726,12
723,65	5443,50
723,84	5902,25
724,02	5525,42
724,21	5715,88
724,39	5427,12
724,58	5447,60
724,76	5556,14
724,94	5502,89
725,13	5672,87
725,31	5435,31
725,50	5306,29
725,68	5685,16
725,87	5470,12
726,05	5476,27
726,23	5511,08
726,42	5474,22
726,60	5617,58
726,79	5394,35
726,97	5382,06
727,16	5443,50
727,34	5513,13
727,52	5396,40
727,71	5298,10
727,89	5461,93
728,08	5361,58
728,26	5248,94
728,44	5298,10
728,63	5253,04
728,81	5328,81
729,00	5427,12
729,18	5402,54
729,36	5402,54
729,55	5347,25
729,73	5484,46
729,92	5386,16
730,10	5183,41
730,28	5468,08
730,47	5455,79
730,65	5406,64
730,84	5296,05
731,02	5416,88
731,20	5433,26
731,39	5406,64
731,57	5408,69
731,75	5566,38
731,94	5308,34
732,12	5611,43
732,31	5486,51
732,49	5605,29
732,67	5390,25
732,86	5552,04
733,04	5568,43
733,22	5463,98
733,41	5267,38
733,59	5371,82
733,78	5375,92
733,96	5359,53
734,14	5384,11
734,33	5273,52
734,51	5443,50
734,69	5224,37
734,88	5183,41
735,06	5296,05
735,24	5337,01
735,43	5218,22
735,61	5361,58
735,79	5029,81
735,98	5429,17
736,16	5343,15
736,34	5384,11
736,53	5390,25
736,71	5396,40
736,89	5289,90
737,08	5183,41
737,26	5244,85
737,44	4966,32
737,63	5289,90
737,81	5179,31
737,99	5150,64
738,18	5212,08
738,36	5240,75
738,54	5185,46
738,73	5255,09
738,91	5185,46
739,09	5281,71
739,28	5121,97
739,46	5099,44
739,64	5078,96
739,82	5101,49
740,01	4874,17
740,19	5011,38
740,37	5015,48
740,56	4947,89
740,74	5076,91
740,92	5029,81
741,11	4984,76
741,29	5048,24
741,47	5011,38
741,65	5015,48
741,84	5021,62
742,02	4849,59
742,20	4949,94
742,39	4911,03
742,57	4816,82
742,75	4960,18
742,93	4919,22
743,12	4779,96
743,30	4726,71
743,48	5152,69
743,67	4874,17
743,85	4771,77
744,03	4802,49
744,21	4894,65
744,40	4741,05
744,58	4745,14
744,76	4831,16
744,94	4767,67
745,13	5144,50
745,31	4982,71
745,49	4552,63
745,67	4915,12
745,86	4790,20
746,04	4761,53
746,22	4702,14
746,40	4675,51
746,59	4493,24
746,77	4847,54
746,95	4636,60
747,13	4765,62
747,32	4607,93
747,50	4542,39
747,68	4519,87
747,86	4442,04
748,05	4503,48
748,23	4407,23
748,41	4380,61
748,59	4333,50
748,77	4460,48
748,96	4382,65
749,14	4321,21
749,32	4468,67
749,50	4267,97
749,69	4339,65
749,87	4220,86
750,05	4401,08
750,23	4339,65
750,41	4274,11
750,60	4233,15
750,78	4270,01
750,96	4073,41
751,14	4337,60
751,32	4368,32
751,51	4253,63
751,69	4192,19
751,87	4151,23
752,05	4263,87
752,23	4188,10
752,42	4167,62
752,60	4263,87
752,78	4198,34
752,96	4184,00
753,14	4224,96
753,33	4050,88
753,51	4106,18
753,69	4108,23
753,87	4470,72
754,05	4118,47
754,23	4036,55
754,42	4138,94
754,60	4421,56
754,78	4181,95
754,96	4009,92
755,14	3942,34
755,32	4110,27
755,51	4067,27
755,69	4204,48
755,87	4241,34
756,05	4186,05
756,23	4167,62
756,41	4227,01
756,60	4159,42
756,78	4181,95
756,96	4249,54
757,14	4202,43
757,32	4132,80
757,50	4245,44
757,68	4016,07
757,87	4048,83
758,05	4044,74
758,23	3819,46
758,41	3493,83
758,59	3198,93
758,77	2813,91
758,95	2525,15
759,14	2205,66
759,32	1824,74
759,50	1693,67
759,68	1556,46
759,86	1372,14
760,04	1447,91
760,22	1396,71
760,40	1476,59
760,59	1583,08
760,77	1802,21
760,95	1828,84
761,13	1884,13
761,31	1873,89
761,49	1787,88
761,67	1812,45
761,85	1673,19
762,03	1517,54
762,22	1552,36
762,40	1624,04
762,58	1632,23
762,76	1542,12
762,94	1763,30
763,12	1820,64
763,30	1892,32
763,48	2068,45
763,66	2054,11
763,84	1972,19
764,02	2121,70
764,21	2430,94
764,39	2469,85
764,57	2502,62
764,75	2588,63
764,93	2516,95
765,11	2705,37
765,29	2799,57
765,47	2756,57
765,65	3006,42
765,83	3162,06
766,01	3203,02
766,19	3295,18
766,37	3368,91
766,56	3577,80
766,74	3645,38
766,92	3383,24
767,10	3483,59
767,28	3665,86
767,46	3753,93
767,64	3669,96
767,82	3772,36
768,00	3747,78
768,18	3796,93
768,36	3743,69
768,54	3835,85
768,72	3903,43
768,90	4001,73
769,08	3841,99
769,26	4032,45
769,44	3968,96
769,62	3940,29
769,80	4046,79
769,98	3930,05
770,16	3792,84
770,34	3780,55
770,52	3893,19
770,71	3708,87
770,89	3944,39
771,07	3665,86
771,25	3745,73
771,43	3841,99
771,61	3887,04
771,79	3735,49
771,97	3807,17
772,15	3665,86
772,33	3524,55
772,51	3860,42
772,69	3655,62
772,87	3796,93
773,05	3698,63
773,23	3633,10
773,41	3643,34
773,59	3809,22
773,77	3596,23
773,95	3561,42
774,13	3373,00
774,31	3542,99
774,49	3334,09
774,67	3418,06
774,85	3616,71
775,03	3434,44
775,21	3377,10
775,39	3446,73
775,57	3344,33
775,75	3522,51
775,93	3319,76
776,10	3297,23
776,28	3246,03
776,46	3327,95
776,64	3272,65
776,82	3391,44
777,00	3655,62
777,18	3368,91
777,36	3211,22
777,54	3356,62
777,72	3354,57
777,90	3397,58
778,08	3334,09
778,26	3229,65
778,44	3114,96
778,62	3270,61
778,80	3026,90
778,98	3096,53
779,16	3108,82
779,34	3149,78
779,52	3149,78
779,70	2930,64
779,88	3035,09
780,05	3076,05
780,23	3055,57
780,41	3043,28
780,59	2842,58
780,77	3076,05
780,95	3151,82
781,13	2897,88
781,31	3020,75
781,49	3049,43
781,67	3000,27
781,85	2953,17
782,03	3000,27
782,21	2914,26
782,39	2918,36
782,56	2973,65
782,74	2713,56
782,92	2787,29
783,10	2848,72
783,28	2766,81
783,46	2944,98
783,64	2990,03
783,82	2854,87
784,00	2711,51
784,18	2729,94
784,35	2869,20
784,53	2768,85
784,71	2719,70
784,89	2750,42
785,07	2645,98
785,25	2701,27
785,43	2801,62
785,61	2594,78
785,79	2756,57
785,96	2678,74
786,14	2766,81
786,32	2723,80
786,50	2555,87
786,68	2625,50
786,86	2664,41
787,04	2551,77
787,22	2662,36
787,39	2351,07
787,57	2527,19
787,75	2506,71
787,93	2633,69
788,11	2617,30
788,29	2564,06
788,47	2461,66
788,65	2428,89
788,82	2324,44
789,00	2621,40
789,18	2453,47
789,36	2260,96
789,54	2351,07
789,72	2424,80
789,89	2512,86
790,07	2480,09
790,25	2248,67
790,43	2486,23
790,61	2226,14
790,79	2240,48
790,96	2090,98
791,14	2291,68
791,32	2273,25
791,50	2226,14
791,68	2220,00
791,86	2316,25
792,03	2125,79
792,21	2217,95
792,39	2297,82
792,57	2209,76
792,75	2127,84
792,93	2275,29
793,10	2199,52
793,28	2170,85
793,46	2174,94
793,64	1982,43
793,82	2107,36
793,99	2058,21
794,17	2045,92
794,35	2234,33
794,53	2232,29
794,71	2187,23
794,88	2222,05
795,06	2121,70
795,24	2273,25
795,42	2154,46
795,60	2043,87
795,77	2146,27
795,95	1974,24
796,13	2142,18
796,31	2224,09
796,49	2203,61
796,66	2103,26
796,84	2095,07
797,02	1941,47
797,20	2027,49
797,37	2080,74
797,55	2162,65
797,73	2037,73
797,91	2060,26
798,08	1968,10
798,26	1994,72
798,44	1904,61
798,62	1859,56
798,80	1920,99
798,97	1920,99
799,15	2021,35
799,33	1939,43
799,51	1957,86
799,68	1906,66
799,86	1996,77
800,04	1884,13
800,22	1900,51
800,39	1810,40
800,57	1839,08
800,75	1710,05
800,93	1732,58
801,10	1931,23
801,28	1863,65
801,46	1855,46
801,63	1937,38
801,81	1810,40
801,99	1775,59
802,17	1896,42
802,34	1892,32
802,52	1914,85
802,70	1769,44
802,88	1931,23
803,05	1691,62
803,23	1779,68
803,41	1687,53
803,58	1816,55
803,76	1736,68
803,94	1615,85
804,12	1796,07
804,29	1683,43
804,47	1822,69
804,65	1705,96
804,82	1642,47
805,00	1710,05
805,18	1798,12
805,35	1880,04
805,53	1671,14
805,71	1718,25
805,89	1732,58
806,06	1746,92
806,24	1617,90
806,42	1753,06
806,59	1632,23
806,77	1890,28
806,95	1648,61
807,12	1708,01
807,30	1638,38
807,48	1644,52
807,65	1556,46
807,83	1732,58
808,01	1716,20
808,18	1630,18
808,36	1558,50
808,54	1585,13
808,71	1548,26
808,89	1689,57
809,07	1497,07
809,24	1558,50
809,42	1644,52
809,60	1720,29
809,77	1572,84
809,95	1669,09
810,13	1527,78
810,30	1595,37
810,48	1554,41
810,66	1460,20
810,83	1638,38
811,01	1531,88
811,18	1505,26
811,36	1456,11
811,54	1507,30
811,71	1621,99
811,89	1515,50
812,07	1441,77
812,24	1466,35
812,42	1476,59
812,59	1417,19
812,77	1339,37
812,95	1511,40
813,12	1359,85
813,30	1382,38
813,48	1329,13
813,65	1413,10
813,83	1388,52
814,00	1300,46
814,18	1372,14
814,36	1396,71
814,53	1368,04
814,71	1306,60
814,88	1265,64
815,06	1269,74
815,24	1376,24
815,41	1304,56
815,59	1247,21
815,76	1306,60
815,94	1181,68
816,12	1163,25
816,29	1333,23
816,47	1255,40
816,64	1228,78
816,82	1327,08
817,00	1247,21
817,17	1089,52
817,35	1253,36
817,52	1185,77
817,70	1253,36
817,87	1189,87
818,05	1175,53
818,23	1212,40
818,40	1171,44
818,58	1110,00
818,75	1216,49
818,93	1165,29
819,10	1239,02
819,28	1120,24
819,46	1169,39
819,63	1187,82
819,81	1179,63
819,98	1253,36
820,16	1290,22
820,33	1097,71
820,51	1249,26
820,68	1202,16
820,86	1126,38
821,03	1271,79
821,21	1175,53
821,39	1110,00
821,56	1173,49
821,74	1003,50
821,91	1095,66
822,09	1028,08
822,26	1124,33
822,44	1030,13
822,61	970,74
822,79	1105,90
822,96	1079,28
823,14	1148,91
823,31	1124,33
823,49	1251,31
823,66	1169,39
823,84	1105,90
824,01	1181,68
824,19	1243,12
824,36	1187,82
824,54	1159,15
824,71	1087,47
824,89	1112,05
825,06	1118,19
825,24	1163,25
825,41	1187,82
825,59	1040,37
825,76	1120,24
825,94	1136,62
826,11	1036,27
826,29	1200,11
826,46	1071,09
826,64	1171,44
826,81	1079,28
826,99	1005,55
827,16	1095,66
827,34	1107,95
827,51	1083,38
827,69	1171,44
827,86	1034,22
828,04	1021,94
828,21	987,12
828,39	1136,62
828,56	1114,10
828,74	993,26
828,91	1077,23
829,09	1073,14
829,26	976,88
829,43	1062,90
829,61	1038,32
829,78	966,64
829,96	1120,24
830,13	1046,51
830,31	962,55
830,48	1017,84
830,66	1009,65
830,83	1091,57
831,01	1052,66
831,18	1026,03
831,35	1003,50
831,53	1150,96
831,70	966,64
831,88	940,02
832,05	987,12
832,23	835,57
832,40	944,11
832,57	980,98
832,75	983,03
832,92	985,07
833,10	1075,18
833,27	999,41
833,45	1118,19
833,62	976,88
833,79	927,73
833,97	1011,70
834,14	1050,61
834,32	911,35
834,49	958,45
834,66	1060,85
834,84	919,54
835,01	894,96
835,19	1007,60
835,36	907,25
835,53	983,03
835,71	954,35
835,88	978,93
836,06	1075,18
836,23	999,41
836,40	1058,80
836,58	944,11
836,75	1003,50
836,93	962,55
837,10	917,49
837,27	978,93
837,45	1005,55
837,62	1034,22
837,79	999,41
837,97	913,39
838,14	1075,18
838,32	962,55
838,49	1054,70
838,66	827,38
838,84	948,21
839,01	915,44
839,18	935,92
839,36	915,44
839,53	864,24
839,70	964,59
839,88	872,43
840,05	858,10
840,23	827,38
840,40	856,05
840,57	952,31
840,75	880,63
840,92	1007,60
841,09	997,36
841,27	917,49
841,44	1003,50
841,61	976,88
841,79	870,39
841,96	942,07
842,13	886,77
842,31	796,66
842,48	790,52
842,65	905,20
842,83	851,95
843,00	978,93
843,17	919,54
843,35	776,18
843,52	847,86
843,69	854,00
843,86	856,05
844,04	774,13
844,21	829,43
844,38	794,61
844,56	1030,13
844,73	755,70
844,90	878,58
845,08	917,49
845,25	788,47
845,42	827,38
845,60	770,04
845,77	944,11
845,94	972,79
846,11	753,65
846,29	866,29
846,46	770,04
846,63	882,67
846,81	851,95
846,98	886,77
847,15	917,49
847,32	739,32
847,50	851,95
847,67	749,56
847,84	815,09
848,01	786,42
848,19	747,51
848,36	737,27
848,53	745,46
848,71	835,57
848,88	657,40
849,05	849,91
849,22	692,21
849,40	624,63
849,57	782,32
849,74	700,41
849,91	681,97
850,09	821,24
850,26	694,26
850,43	694,26
850,60	745,46
850,78	720,88
850,95	761,84
851,12	737,27
851,29	686,07
851,47	743,41
851,64	702,45
851,81	700,41
851,98	643,06
852,15	694,26
852,33	710,65
852,50	706,55
852,67	788,47
852,84	645,11
853,02	657,40
853,19	581,62
853,36	620,53
853,53	733,17
853,70	632,82
853,88	659,45
854,05	581,62
854,22	684,02
854,39	628,73
854,56	641,01
854,74	714,74
854,91	669,69
855,08	661,49
855,25	624,63
855,42	673,78
855,60	571,38
855,77	727,03
855,94	626,68
856,11	612,34
856,28	673,78
856,46	692,21
856,63	659,45
856,80	727,03
856,97	647,16
857,14	655,35
857,31	618,49
857,49	632,82
857,66	557,05
857,83	571,38
858,00	573,43
858,17	696,31
858,34	628,73
858,52	661,49
858,69	679,93
858,86	624,63
859,03	624,63
859,20	684,02
859,37	792,56
859,55	669,69
859,72	753,65
859,89	563,19
860,06	600,05
860,23	612,34
860,40	634,87
860,57	614,39
860,75	679,93
860,92	684,02
861,09	663,54
861,26	708,60
861,43	692,21
861,60	585,72
861,77	538,62
861,95	610,29
862,12	669,69
862,29	452,60
862,46	536,57
862,63	573,43
862,80	659,45
862,97	604,15
863,14	544,76
863,31	632,82
863,49	581,62
863,66	565,24
863,83	620,53
864,00	518,14
864,17	587,77
864,34	475,13
864,51	624,63
864,68	641,01
864,85	667,64
865,02	462,84
865,20	575,48
865,37	489,46
865,54	557,05
865,71	579,58
865,88	587,77
866,05	475,13
866,22	653,30
866,39	581,62
866,56	524,28
866,73	552,95
866,90	604,15
867,07	509,94
867,25	673,78
867,42	458,74
867,59	575,48
867,76	616,44
867,93	552,95
868,10	608,25
868,27	425,98
868,44	466,94
868,61	452,60
868,78	579,58
868,95	659,45
869,12	450,55
869,29	649,21
869,46	471,03
869,63	493,56
869,80	591,86
869,97	575,48
870,14	559,10
870,32	634,87
870,49	425,98
870,66	444,41
870,83	516,09
871,00	559,10
871,17	448,51
871,34	544,76
871,51	589,82
871,68	528,38
871,85	505,85
872,02	464,89
872,19	456,70
872,36	454,65
872,53	477,18
872,70	483,32
872,87	645,11
873,04	481,27
873,21	487,42
873,38	466,94
873,55	454,65
873,72	434,17
873,89	342,01
874,06	503,80
874,23	489,46
874,40	499,70
874,57	446,46
874,74	532,47
874,91	438,27
875,08	436,22
875,25	511,99
875,42	403,45
875,59	487,42
875,76	489,46
875,93	471,03
876,10	430,07
876,27	446,46
876,44	376,83
876,61	497,66
876,78	581,62
876,95	409,59
877,12	380,92
877,29	587,77
877,46	475,13
877,62	436,22
877,79	466,94
877,96	339,96
878,13	335,87
878,30	591,86
878,47	356,35
878,64	462,84
878,81	409,59
878,98	393,21
879,15	438,27
879,32	462,84
879,49	382,97
879,66	407,55
879,83	423,93
880,00	450,55
880,17	397,31
880,34	405,50
880,51	485,37
880,67	411,64
880,84	389,11
881,01	409,59
881,18	466,94
881,35	393,21
881,52	421,88
881,69	438,27
881,86	501,75
882,03	382,97
882,20	593,91
882,37	339,96
882,54	448,51
882,70	362,49
882,87	362,49
883,04	346,11
883,21	311,29
883,38	247,80
883,55	370,68
883,72	407,55
883,89	399,35
884,06	317,44
884,23	438,27
884,39	292,86
884,56	409,59
884,73	397,31
884,90	487,42
885,07	325,63
885,24	446,46
885,41	358,39
885,58	376,83
885,74	483,32
885,91	405,50
886,08	409,59
886,25	483,32
886,42	444,41
886,59	335,87
886,76	403,45
886,93	397,31
887,09	464,89
887,26	403,45
887,43	301,05
887,60	372,73
887,77	428,03
887,94	335,87
888,10	452,60
888,27	344,06
888,44	395,26
888,61	325,63
888,78	346,11
888,95	321,53
889,12	288,76
889,28	276,48
889,45	401,40
889,62	409,59
889,79	339,96
889,96	395,26
890,13	344,06
890,29	362,49
890,46	299,00
890,63	421,88
890,80	274,43
890,97	284,67
891,13	299,00
891,30	344,06
891,47	337,91
891,64	354,30
891,81	374,78
891,98	425,98
892,14	409,59
892,31	294,91
892,48	323,58
892,65	376,83
892,82	323,58
892,98	276,48
893,15	313,34
893,32	280,57
>>>>>End Processed Spectral Data<<<<<
