SpectraSuite Datei
++++++++++++++++++++++++++++++++++++
Datum: Mon Feb 18 15:45:15 CET 2019
Benutzer: Admin
Dark-Spektrum vorhanden: Ja
Referenz-Spektrum vorhanden: Ja
Zahl der probierten Teilspektren: 1
Spektrometer: USB4F05832
Integrationszeit (usec): 3800 (USB4F05832)
Spektren Durchschnitt berechnet: 1052 (USB4F05832)
Boxcar Glättung: 0 (USB4F05832)
Dunkelstromkorrektur: Nein (USB4F05832)
Puls/Lampe aktiviert: Nein (USB4F05832)
Correct for Detector Non-linearity: Nein (USB4F05832)
Streulichtkorrektur: Nein (USB4F05832)
Anzahl Pixel in verarbeitetem Spektrum: 3648
>>>>>Begin Processed Spectral Data<<<<<
177,54	29,83
177,75	29,83
177,97	29,83
178,19	-21,68
178,41	27,50
178,63	57,23
178,85	11,27
179,07	28,13
179,29	-44,07
179,51	-39,68
179,73	81,15
179,95	-9,09
180,17	-1,61
180,39	-9,09
180,61	37,30
180,83	-21,50
181,05	28,20
181,27	-50,74
181,49	19,16
181,71	-46,93
181,92	-25,99
182,14	-1,87
182,36	-38,67
182,58	-5,99
182,80	15,55
183,02	40,08
183,24	127,44
183,46	-2,63
183,68	-15,17
183,90	-2,11
184,12	-7,98
184,34	40,02
184,56	27,66
184,78	71,20
185,00	5,77
185,21	-6,45
185,43	7,11
185,65	-7,17
185,87	-4,78
186,09	-13,96
186,31	31,68
186,53	-10,72
186,75	58,69
186,97	-15,00
187,19	30,77
187,41	22,37
187,63	18,78
187,84	-24,97
188,06	20,27
188,28	-21,22
188,50	-11,80
188,72	-46,65
188,94	-8,58
189,16	50,12
189,38	56,57
189,60	-32,02
189,82	42,81
190,03	47,40
190,25	70,87
190,47	24,30
190,69	29,27
190,91	-1,81
191,13	-3,48
191,35	47,81
191,57	10,68
191,79	-20,22
192,01	-33,51
192,22	49,76
192,44	-17,70
192,66	-51,09
192,88	30,95
193,10	31,44
193,32	40,13
193,54	-18,37
193,76	-32,88
193,98	99,89
194,19	-53,25
194,41	-17,24
194,63	28,91
194,85	27,41
195,07	42,28
195,29	50,94
195,51	-23,41
195,73	3,78
195,94	-44,19
196,16	-30,96
196,38	30,99
196,60	70,23
196,82	2,32
197,04	6,87
197,26	-41,73
197,48	31,15
197,69	15,86
197,91	24,10
198,13	60,96
198,35	8,41
198,57	5,05
198,79	99,10
199,01	46,15
199,22	35,42
199,44	55,88
199,66	-40,13
199,88	19,47
200,10	26,93
200,32	44,78
200,54	-31,25
200,75	14,95
200,97	17,80
201,19	26,04
201,41	75,94
201,63	-3,43
201,85	-32,35
202,06	47,87
202,28	15,33
202,50	6,04
202,72	31,31
202,94	-11,32
203,16	57,83
203,38	8,52
203,59	15,66
203,81	30,39
204,03	-4,35
204,25	-28,94
204,47	35,30
204,69	2,81
204,90	41,82
205,12	30,70
205,34	23,21
205,56	-6,48
205,78	60,31
206,00	47,54
206,21	5,27
206,43	27,97
206,65	58,75
206,87	-3,54
207,09	-6,74
207,30	-19,52
207,52	84,30
207,74	20,72
207,96	24,48
208,18	-2,46
208,40	106,02
208,61	8,46
208,83	1,20
209,05	25,92
209,27	73,95
209,49	42,32
209,70	36,67
209,92	-16,29
210,14	-18,61
210,36	21,37
210,58	-24,22
210,79	63,49
211,01	-11,30
211,23	26,11
211,45	49,77
211,67	48,66
211,88	15,66
212,10	-7,29
212,32	24,78
212,54	58,30
212,76	-12,80
212,97	61,11
213,19	14,67
213,41	-32,49
213,63	14,42
213,85	25,76
214,06	-9,16
214,28	-18,60
214,50	7,17
214,72	37,85
214,94	26,47
215,15	41,36
215,37	80,88
215,59	-26,96
215,81	50,91
216,02	39,39
216,24	44,99
216,46	17,26
216,68	-24,65
216,90	1,21
217,11	-14,79
217,33	23,75
217,55	43,33
217,77	52,88
217,98	34,60
218,20	16,03
218,42	-47,62
218,64	-52,41
218,85	-3,35
219,07	1,13
219,29	34,58
219,51	-13,06
219,73	-25,88
219,94	-19,09
220,16	7,07
220,38	41,19
220,60	-6,27
220,81	6,94
221,03	-33,99
221,25	-48,85
221,47	-82,87
221,68	6,34
221,90	52,09
222,12	-16,41
222,34	-0,01
222,55	-28,20
222,77	46,76
222,99	18,77
223,21	-12,51
223,42	17,94
223,64	21,13
223,86	19,08
224,08	61,84
224,29	10,20
224,51	30,54
224,73	25,33
224,94	-27,42
225,16	0,86
225,38	4,05
225,60	35,68
225,81	22,89
226,03	66,87
226,25	42,24
226,47	22,43
226,68	33,89
226,90	59,28
227,12	44,10
227,33	61,33
227,55	50,46
227,77	-6,07
227,99	64,94
228,20	13,78
228,42	32,58
228,64	61,09
228,86	3,58
229,07	2,39
229,29	41,48
229,51	-35,72
229,72	15,11
229,94	-13,62
230,16	26,95
230,38	13,92
230,59	50,31
230,81	-18,99
231,03	62,48
231,24	28,90
231,46	51,72
231,68	56,87
231,89	5,88
232,11	-10,65
232,33	-43,57
232,55	11,78
232,76	94,93
232,98	-32,19
233,20	24,97
233,41	22,62
233,63	-11,08
233,85	-37,23
234,06	65,69
234,28	-25,88
234,50	48,48
234,71	24,85
234,93	-13,88
235,15	22,63
235,37	-23,81
235,58	49,40
235,80	-32,75
236,02	46,51
236,23	53,68
236,45	33,53
236,67	-7,70
236,88	-31,27
237,10	32,15
237,32	9,35
237,53	5,48
237,75	38,60
237,97	5,29
238,18	4,14
238,40	72,51
238,62	37,38
238,83	62,37
239,05	20,34
239,27	-23,41
239,48	57,39
239,70	-51,09
239,92	30,22
240,13	-25,24
240,35	-0,03
240,57	50,95
240,78	56,66
241,00	29,09
241,22	4,54
241,43	-4,36
241,65	1,33
241,87	44,55
242,08	-8,91
242,30	-13,68
242,52	-37,89
242,73	23,04
242,95	33,24
243,16	9,00
243,38	-0,57
243,60	-8,65
243,81	-2,64
244,03	-34,05
244,25	63,38
244,46	37,89
244,68	-14,94
244,90	47,42
245,11	27,43
245,33	73,04
245,55	27,78
245,76	8,92
245,98	-4,49
246,19	12,67
246,41	74,14
246,63	18,53
246,84	-21,84
247,06	92,42
247,28	-8,11
247,49	27,86
247,71	91,09
247,92	-12,53
248,14	0,03
248,36	-22,23
248,57	1,77
248,79	31,12
249,01	-23,88
249,22	33,90
249,44	8,27
249,65	57,17
249,87	39,83
250,09	-1,24
250,30	20,38
250,52	23,75
250,73	67,29
250,95	27,67
251,17	68,75
251,38	42,33
251,60	-53,47
251,81	19,01
252,03	26,17
252,25	-32,64
252,46	6,78
252,68	35,23
252,89	-35,19
253,11	74,58
253,33	5,76
253,54	56,92
253,76	-6,98
253,97	10,77
254,19	33,48
254,41	-47,96
254,62	53,18
254,84	6,37
255,05	-33,72
255,27	33,79
255,49	-31,48
255,70	-43,60
255,92	-23,38
256,13	-53,41
256,35	26,13
256,56	-19,85
256,78	0,76
257,00	-2,74
257,21	5,22
257,43	36,44
257,64	60,86
257,86	29,67
258,08	18,50
258,29	15,31
258,51	87,15
258,72	45,55
258,94	-32,03
259,15	-20,81
259,37	1,43
259,59	24,69
259,80	54,21
260,02	42,56
260,23	80,69
260,45	44,57
260,66	-32,26
260,88	55,74
261,09	65,92
261,31	6,92
261,53	8,85
261,74	-3,37
261,96	67,34
262,17	74,91
262,39	-28,02
262,60	11,41
262,82	59,92
263,03	73,12
263,25	-30,64
263,46	26,26
263,68	64,80
263,90	10,14
264,11	16,85
264,33	-27,76
264,54	-4,83
264,76	15,93
264,97	54,88
265,19	20,92
265,40	46,02
265,62	26,97
265,83	57,98
266,05	-3,96
266,26	35,83
266,48	60,61
266,70	8,81
266,91	75,18
267,13	0,88
267,34	95,51
267,56	-12,87
267,77	34,88
267,99	-30,86
268,20	68,25
268,42	-7,84
268,63	60,07
268,85	30,24
269,06	60,41
269,28	51,90
269,49	-24,74
269,71	-17,61
269,92	3,47
270,14	-6,27
270,35	-53,15
270,57	4,66
270,78	8,16
271,00	7,43
271,21	-5,86
271,43	0,43
271,64	-53,25
271,86	29,11
272,07	41,85
272,29	36,05
272,50	25,88
272,72	-6,66
272,93	22,27
273,15	62,61
273,36	2,28
273,58	-13,60
273,79	-54,22
274,01	-54,50
274,22	-3,87
274,44	41,26
274,65	-54,22
274,87	19,55
275,08	50,86
275,30	-62,63
275,51	-35,63
275,73	36,74
275,94	-17,61
276,16	-13,53
276,37	-46,81
276,59	0,59
276,80	-24,23
277,02	26,65
277,23	18,44
277,45	10,21
277,66	50,14
277,88	100,71
278,09	24,30
278,30	-29,30
278,52	40,54
278,73	-20,83
278,95	54,38
279,16	-8,34
279,38	-3,09
279,59	-27,42
279,81	30,89
280,02	4,21
280,24	13,43
280,45	24,63
280,67	16,48
280,88	75,86
281,09	59,72
281,31	88,30
281,52	76,23
281,74	64,42
281,95	27,80
282,17	48,40
282,38	3,58
282,60	-13,60
282,81	-74,92
283,02	41,10
283,24	108,04
283,45	69,59
283,67	73,23
283,88	43,97
284,10	-1,98
284,31	90,91
284,53	8,29
284,74	16,77
284,95	-42,90
285,17	73,16
285,38	65,55
285,60	108,75
285,81	4,69
286,03	-31,98
286,24	18,43
286,45	39,81
286,67	24,88
286,88	35,11
287,10	110,20
287,31	75,32
287,53	5,93
287,74	18,65
287,95	51,93
288,17	-30,31
288,38	-32,88
288,60	-12,34
288,81	32,72
289,02	29,82
289,24	10,27
289,45	-25,11
289,67	17,20
289,88	53,99
290,10	28,90
290,31	4,34
290,52	9,05
290,74	-17,52
290,95	16,75
291,17	-25,40
291,38	70,29
291,59	3,42
291,81	-3,43
292,02	0,07
292,24	63,85
292,45	-29,81
292,66	-14,07
292,88	-47,78
293,09	-1,43
293,31	68,79
293,52	23,21
293,73	-35,03
293,95	44,76
294,16	42,00
294,37	6,36
294,59	79,37
294,80	9,87
295,02	-23,03
295,23	-63,07
295,44	-20,94
295,66	-9,38
295,87	13,46
296,09	30,93
296,30	-5,14
296,51	-8,84
296,73	85,08
296,94	62,33
297,15	66,10
297,37	-49,33
297,58	-31,97
297,79	3,20
298,01	-9,78
298,22	33,96
298,44	48,50
298,65	-24,49
298,86	21,87
299,08	-24,99
299,29	7,38
299,50	19,94
299,72	26,01
299,93	-5,58
300,14	10,89
300,36	-7,65
300,57	-16,89
300,79	23,65
301,00	-23,38
301,21	22,64
301,43	-31,38
301,64	4,71
301,85	36,62
302,07	-60,51
302,28	54,32
302,49	-0,11
302,71	26,42
302,92	37,01
303,13	-44,11
303,35	43,09
303,56	59,54
303,77	33,33
303,99	-17,56
304,20	-2,60
304,41	34,21
304,63	35,14
304,84	-2,53
305,05	-93,99
305,27	41,50
305,48	17,94
305,69	-9,26
305,91	62,79
306,12	39,27
306,33	74,09
306,55	52,02
306,76	23,29
306,97	-16,59
307,19	-21,47
307,40	10,86
307,61	95,39
307,82	18,37
308,04	63,59
308,25	18,27
308,46	53,16
308,68	17,13
308,89	-10,95
309,10	-37,87
309,32	-51,77
309,53	-11,33
309,74	66,10
309,96	-48,23
310,17	103,06
310,38	-55,03
310,59	88,46
310,81	7,84
311,02	30,40
311,23	0,07
311,45	16,66
311,66	63,11
311,87	-31,74
312,09	58,08
312,30	12,51
312,51	52,63
312,72	-94,79
312,94	16,62
313,15	-5,08
313,36	2,51
313,58	-27,78
313,79	15,75
314,00	19,75
314,21	-74,63
314,43	-4,43
314,64	30,25
314,85	19,53
315,06	73,02
315,28	-14,19
315,49	-28,90
315,70	43,89
315,92	10,27
316,13	16,91
316,34	55,28
316,55	0,11
316,77	32,46
316,98	14,19
317,19	-37,52
317,40	52,85
317,62	22,33
317,83	63,02
318,04	-1,01
318,25	74,25
318,47	62,27
318,68	6,23
318,89	26,08
319,11	42,34
319,32	1,64
319,53	-26,92
319,74	-12,00
319,96	11,90
320,17	-54,44
320,38	-49,82
320,59	20,22
320,81	2,05
321,02	-23,29
321,23	-11,93
321,44	-7,97
321,65	64,27
321,87	-8,85
322,08	-13,76
322,29	-31,16
322,50	40,67
322,72	-13,71
322,93	76,99
323,14	64,96
323,35	8,14
323,57	29,70
323,78	59,69
323,99	-12,62
324,20	1,06
324,41	11,17
324,63	58,25
324,84	-30,43
325,05	-15,58
325,26	37,60
325,48	-1,48
325,69	-26,99
325,90	28,25
326,11	23,26
326,32	11,10
326,54	11,34
326,75	31,65
326,96	18,09
327,17	47,86
327,39	6,78
327,60	-12,68
327,81	-4,90
328,02	30,54
328,23	17,43
328,45	-3,94
328,66	12,75
328,87	117,54
329,08	201,60
329,29	353,16
329,51	514,56
329,72	603,66
329,93	756,50
330,14	614,01
330,35	641,33
330,56	434,97
330,78	315,64
330,99	180,72
331,20	67,80
331,41	49,07
331,62	25,73
331,84	67,22
332,05	-26,63
332,26	67,88
332,47	40,60
332,68	24,54
332,90	1,11
333,11	-0,81
333,32	42,38
333,53	40,65
333,74	-15,59
333,95	9,62
334,17	40,07
334,38	27,08
334,59	-11,14
334,80	-14,96
335,01	105,37
335,22	4,96
335,44	82,34
335,65	-21,35
335,86	32,82
336,07	8,57
336,28	42,78
336,49	42,72
336,71	41,42
336,92	26,14
337,13	-37,86
337,34	-11,37
337,55	62,47
337,76	29,99
337,97	55,60
338,19	-6,09
338,40	45,05
338,61	-13,29
338,82	4,23
339,03	-34,60
339,24	50,95
339,45	57,91
339,67	40,70
339,88	87,06
340,09	67,11
340,30	-27,68
340,51	42,17
340,72	115,80
340,93	5,61
341,15	54,24
341,36	69,12
341,57	-18,56
341,78	63,78
341,99	57,32
342,20	46,37
342,41	15,72
342,62	-10,61
342,84	21,42
343,05	-76,01
343,26	31,11
343,47	-45,67
343,68	-19,91
343,89	16,15
344,10	65,89
344,31	57,42
344,53	-98,32
344,74	15,87
344,95	83,62
345,16	-5,96
345,37	-26,98
345,58	28,39
345,79	6,44
346,00	66,49
346,21	40,78
346,42	-4,11
346,64	-24,50
346,85	-0,53
347,06	-3,64
347,27	-7,64
347,48	100,75
347,69	39,19
347,90	-32,50
348,11	-60,56
348,32	-30,46
348,53	26,62
348,75	20,86
348,96	-10,45
349,17	3,96
349,38	43,63
349,59	76,27
349,80	-10,74
350,01	55,82
350,22	-42,60
350,43	20,68
350,64	-46,15
350,85	10,04
351,06	36,98
351,28	-41,00
351,49	12,86
351,70	5,03
351,91	65,33
352,12	73,19
352,33	17,92
352,54	12,23
352,75	-79,74
352,96	-38,01
353,17	-8,45
353,38	0,60
353,59	66,91
353,80	-16,02
354,01	48,10
354,22	-42,66
354,44	1,04
354,65	22,31
354,86	67,29
355,07	46,12
355,28	3,81
355,49	4,53
355,70	7,79
355,91	-7,43
356,12	69,97
356,33	-4,10
356,54	-11,47
356,75	118,96
356,96	-27,30
357,17	62,07
357,38	11,67
357,59	-6,26
357,80	-56,13
358,01	-2,71
358,22	51,12
358,43	30,50
358,64	-13,61
358,85	-4,92
359,07	-33,15
359,28	-45,29
359,49	11,43
359,70	12,61
359,91	17,47
360,12	-4,73
360,33	-11,82
360,54	33,93
360,75	7,50
360,96	20,76
361,17	14,50
361,38	56,92
361,59	91,50
361,80	40,74
362,01	-2,54
362,22	-11,40
362,43	-1,06
362,64	30,58
362,85	36,43
363,06	49,18
363,27	-43,02
363,48	5,77
363,69	53,31
363,90	-19,45
364,11	20,52
364,32	77,14
364,53	16,01
364,74	124,82
364,95	27,66
365,16	10,97
365,37	-35,82
365,58	40,11
365,79	-18,77
366,00	-25,99
366,21	78,48
366,42	74,09
366,63	-38,06
366,84	-13,43
367,05	53,39
367,26	69,30
367,47	-9,65
367,68	-31,36
367,89	27,91
368,10	29,04
368,31	5,88
368,52	-16,96
368,73	19,38
368,94	81,74
369,15	28,17
369,36	19,35
369,57	10,95
369,78	67,08
369,99	-1,05
370,20	-21,03
370,40	74,40
370,61	37,02
370,82	-2,63
371,03	22,17
371,24	76,67
371,45	45,72
371,66	-9,28
371,87	25,25
372,08	-42,22
372,29	41,89
372,50	10,51
372,71	-29,66
372,92	9,71
373,13	0,23
373,34	15,53
373,55	38,47
373,76	36,05
373,97	43,54
374,18	39,14
374,39	-11,03
374,60	24,91
374,81	-21,21
375,01	35,77
375,22	48,11
375,43	37,99
375,64	38,82
375,85	0,96
376,06	-21,21
376,27	-0,52
376,48	24,35
376,69	-44,34
376,90	44,16
377,11	10,54
377,32	31,52
377,53	22,35
377,74	80,29
377,94	17,89
378,15	9,60
378,36	12,27
378,57	-6,80
378,78	20,26
378,99	-19,48
379,20	55,95
379,41	-35,44
379,62	40,41
379,83	7,05
380,04	-21,46
380,25	-38,08
380,45	82,56
380,66	10,39
380,87	79,45
381,08	46,25
381,29	-13,30
381,50	24,65
381,71	-45,97
381,92	-22,36
382,13	84,67
382,34	57,17
382,55	-42,39
382,75	38,41
382,96	5,79
383,17	19,29
383,38	-76,62
383,59	115,40
383,80	73,93
384,01	44,22
384,22	-34,78
384,43	4,08
384,63	20,36
384,84	2,59
385,05	42,68
385,26	67,50
385,47	12,19
385,68	100,74
385,89	47,78
386,10	53,40
386,30	29,91
386,51	13,44
386,72	86,46
386,93	38,34
387,14	39,16
387,35	115,68
387,56	-71,78
387,77	-19,61
387,97	-17,87
388,18	-95,30
388,39	-0,18
388,60	-28,66
388,81	-72,82
389,02	7,32
389,23	87,06
389,43	22,56
389,64	0,59
389,85	51,43
390,06	-9,85
390,27	-44,76
390,48	40,05
390,69	-35,39
390,89	61,47
391,10	35,70
391,31	31,20
391,52	48,20
391,73	-14,37
391,94	48,41
392,14	12,98
392,35	-15,16
392,56	30,26
392,77	43,24
392,98	-62,42
393,19	7,05
393,39	65,97
393,60	64,96
393,81	-23,45
394,02	-22,67
394,23	40,68
394,44	-10,36
394,64	-13,73
394,85	3,27
395,06	10,27
395,27	51,42
395,48	35,42
395,69	-40,45
395,89	41,77
396,10	43,72
396,31	4,63
396,52	33,84
396,73	21,48
396,93	-0,44
397,14	30,61
397,35	-2,07
397,56	-13,64
397,77	5,77
397,97	22,50
398,18	58,10
398,39	76,17
398,60	54,58
398,81	-4,47
399,01	42,52
399,22	27,70
399,43	-1,61
399,64	31,10
399,85	19,51
400,05	-54,84
400,26	-17,16
400,47	4,68
400,68	-40,09
400,89	21,09
401,09	-8,69
401,30	-32,59
401,51	62,66
401,72	36,71
401,93	-31,97
402,13	2,65
402,34	-7,20
402,55	-39,06
402,76	-0,15
402,96	-20,59
403,17	32,56
403,38	77,53
403,59	17,07
403,80	67,15
404,00	25,64
404,21	-12,79
404,42	30,55
404,63	-24,00
404,83	42,86
405,04	68,64
405,25	80,57
405,46	-3,23
405,66	-35,81
405,87	51,42
406,08	19,12
406,29	26,43
406,49	16,69
406,70	-24,06
406,91	74,39
407,12	-27,41
407,32	9,95
407,53	57,32
407,74	-6,20
407,95	46,90
408,15	21,59
408,36	3,86
408,57	-17,74
408,78	-8,68
408,98	-33,00
409,19	38,65
409,40	-8,08
409,61	-25,10
409,81	34,56
410,02	5,24
410,23	21,46
410,44	37,73
410,64	61,58
410,85	74,43
411,06	59,00
411,26	-12,83
411,47	15,94
411,68	-45,59
411,89	88,06
412,09	-44,05
412,30	99,11
412,51	10,35
412,72	37,05
412,92	17,83
413,13	-16,74
413,34	-18,47
413,54	82,94
413,75	91,66
413,96	-54,33
414,17	63,00
414,37	-6,74
414,58	46,02
414,79	107,53
414,99	76,83
415,20	34,72
415,41	-19,70
415,61	49,17
415,82	64,42
416,03	-1,14
416,24	74,85
416,44	-46,72
416,65	58,25
416,86	2,07
417,06	56,18
417,27	121,70
417,48	-7,20
417,68	45,01
417,89	41,04
418,10	16,25
418,30	79,07
418,51	-14,35
418,72	79,55
418,92	35,88
419,13	-25,29
419,34	17,05
419,55	21,14
419,75	-17,44
419,96	81,26
420,17	8,02
420,37	46,31
420,58	82,18
420,79	52,70
420,99	19,79
421,20	-38,06
421,41	19,45
421,61	69,91
421,82	23,29
422,03	30,59
422,23	30,45
422,44	44,93
422,65	31,39
422,85	92,90
423,06	-45,00
423,26	41,82
423,47	68,73
423,68	7,29
423,88	74,54
424,09	31,53
424,30	16,77
424,50	88,33
424,71	44,43
424,92	24,75
425,12	-17,85
425,33	-5,05
425,54	-16,21
425,74	88,48
425,95	-5,98
426,15	5,45
426,36	51,86
426,57	12,99
426,77	12,65
426,98	73,40
427,19	18,86
427,39	45,33
427,60	31,15
427,81	26,62
428,01	-23,97
428,22	22,22
428,42	25,77
428,63	40,10
428,84	21,28
429,04	-28,85
429,25	9,91
429,45	38,20
429,66	-24,46
429,87	-32,28
430,07	32,99
430,28	82,81
430,49	15,18
430,69	41,30
430,90	1,13
431,10	-13,13
431,31	-19,34
431,52	-14,62
431,72	17,42
431,93	54,55
432,13	23,91
432,34	-17,16
432,55	-46,01
432,75	-54,72
432,96	-19,49
433,16	-5,86
433,37	20,36
433,58	15,39
433,78	71,04
433,99	65,58
434,19	19,77
434,40	-12,44
434,60	19,14
434,81	-21,44
435,02	-5,08
435,22	-4,51
435,43	-2,71
435,63	48,72
435,84	34,34
436,05	39,84
436,25	49,87
436,46	11,37
436,66	39,53
436,87	-24,59
437,07	63,02
437,28	57,27
437,48	45,83
437,69	5,52
437,90	36,94
438,10	38,58
438,31	5,03
438,51	-13,34
438,72	4,27
438,92	8,21
439,13	34,64
439,34	74,20
439,54	95,92
439,75	-3,25
439,95	5,78
440,16	16,93
440,36	9,06
440,57	-1,17
440,77	2,17
440,98	4,36
441,18	-64,42
441,39	59,33
441,60	64,18
441,80	-11,15
442,01	-19,09
442,21	-21,15
442,42	-9,36
442,62	10,93
442,83	14,96
443,03	74,38
443,24	133,05
443,44	-4,84
443,65	4,87
443,85	-13,45
444,06	30,92
444,26	-16,08
444,47	43,68
444,67	44,05
444,88	2,75
445,09	-28,72
445,29	34,80
445,50	-45,01
445,70	-12,85
445,91	98,05
446,11	18,96
446,32	31,59
446,52	51,69
446,73	-1,05
446,93	4,91
447,14	-28,92
447,34	-4,11
447,55	-13,49
447,75	-61,05
447,96	29,55
448,16	59,24
448,37	0,46
448,57	112,06
448,78	60,96
448,98	89,71
449,19	13,73
449,39	0,56
449,60	72,44
449,80	15,78
450,01	-5,80
450,21	42,82
450,42	41,40
450,62	73,77
450,83	17,46
451,03	23,17
451,23	5,42
451,44	38,41
451,64	0,94
451,85	58,89
452,05	-28,83
452,26	11,49
452,46	67,84
452,67	75,16
452,87	88,55
453,08	-23,64
453,28	-2,08
453,49	16,43
453,69	11,86
453,90	85,89
454,10	0,08
454,31	3,11
454,51	-21,65
454,71	25,66
454,92	20,98
455,12	45,29
455,33	63,70
455,53	8,55
455,74	5,95
455,94	26,80
456,15	-23,55
456,35	10,52
456,55	67,48
456,76	26,07
456,96	30,27
457,17	-19,34
457,37	23,95
457,58	19,98
457,78	8,56
457,99	-28,52
458,19	76,37
458,39	-25,03
458,60	26,93
458,80	23,95
459,01	-63,35
459,21	69,66
459,42	16,71
459,62	61,85
459,82	39,03
460,03	47,12
460,23	34,45
460,44	-7,35
460,64	51,21
460,85	-27,22
461,05	53,26
461,25	30,42
461,46	1,26
461,66	53,26
461,87	10,37
462,07	92,48
462,27	40,94
462,48	15,71
462,68	18,76
462,89	-3,90
463,09	7,33
463,29	-51,15
463,50	25,01
463,70	-5,84
463,91	-3,57
464,11	9,77
464,31	15,83
464,52	46,42
464,72	47,67
464,93	28,13
465,13	34,29
465,33	119,05
465,54	51,62
465,74	78,16
465,95	123,53
466,15	213,17
466,35	86,58
466,56	-20,65
466,76	66,97
466,96	-7,33
467,17	54,17
467,37	25,61
467,58	9,00
467,78	60,63
467,98	-31,29
468,19	14,93
468,39	-20,63
468,59	1,69
468,80	-21,55
469,00	58,05
469,21	44,17
469,41	3,82
469,61	50,53
469,82	-25,18
470,02	45,74
470,22	30,73
470,43	38,38
470,63	-66,17
470,83	36,17
471,04	7,27
471,24	28,72
471,45	38,70
471,65	-19,45
471,85	29,06
472,06	53,26
472,26	17,94
472,46	101,32
472,67	-13,58
472,87	2,84
473,07	-23,72
473,28	41,01
473,48	-28,80
473,68	14,93
473,89	143,00
474,09	34,00
474,29	2,68
474,50	15,21
474,70	21,17
474,90	54,35
475,11	33,13
475,31	7,80
475,51	37,17
475,72	-29,16
475,92	74,86
476,12	-51,42
476,33	-2,61
476,53	6,69
476,73	12,55
476,93	86,66
477,14	2,01
477,34	22,06
477,54	-57,57
477,75	18,63
477,95	25,15
478,15	34,03
478,36	75,48
478,56	0,03
478,76	49,94
478,97	-2,59
479,17	-6,92
479,37	0,32
479,57	4,97
479,78	27,75
479,98	19,58
480,18	19,41
480,39	13,66
480,59	-10,45
480,79	17,41
480,99	19,66
481,20	-67,01
481,40	30,95
481,60	29,74
481,81	-24,88
482,01	10,27
482,21	72,06
482,41	72,43
482,62	55,54
482,82	38,56
483,02	19,89
483,23	-8,01
483,43	91,00
483,63	-6,96
483,83	72,38
484,04	-29,18
484,24	-17,46
484,44	4,47
484,64	-52,66
484,85	14,22
485,05	55,89
485,25	5,37
485,45	73,05
485,66	-46,53
485,86	39,09
486,06	25,17
486,26	-11,49
486,47	53,41
486,67	5,14
486,87	85,28
487,07	35,17
487,28	-64,10
487,48	54,34
487,68	19,55
487,88	67,79
488,09	-1,17
488,29	39,61
488,49	4,27
488,69	0,06
488,90	83,49
489,10	-14,83
489,30	-38,57
489,50	19,01
489,71	124,16
489,91	-0,18
490,11	90,17
490,31	58,41
490,52	-19,80
490,72	-43,10
490,92	36,44
491,12	17,77
491,32	24,58
491,53	82,31
491,73	42,08
491,93	-14,44
492,13	-8,64
492,33	8,56
492,54	23,80
492,74	50,21
492,94	70,44
493,14	-38,23
493,35	86,47
493,55	55,73
493,75	56,37
493,95	12,90
494,15	-26,08
494,36	-2,52
494,56	11,13
494,76	66,70
494,96	33,41
495,16	-23,21
495,37	62,30
495,57	19,17
495,77	80,03
495,97	116,89
496,17	68,15
496,37	94,50
496,58	181,76
496,78	396,00
496,98	520,54
497,18	666,97
497,38	625,68
497,59	498,65
497,79	357,65
497,99	245,07
498,19	93,92
498,39	91,56
498,59	76,72
498,80	28,49
499,00	-7,73
499,20	44,12
499,40	85,32
499,60	-2,61
499,80	8,23
500,01	15,94
500,21	39,39
500,41	-19,48
500,61	-5,32
500,81	41,42
501,01	77,74
501,22	0,40
501,42	34,94
501,62	1,43
501,82	23,58
502,02	10,65
502,22	-46,39
502,42	-3,54
502,63	32,49
502,83	0,45
503,03	-16,06
503,23	-6,71
503,43	80,04
503,63	6,52
503,83	68,51
504,04	3,06
504,24	-31,51
504,44	13,26
504,64	14,52
504,84	11,55
505,04	85,88
505,24	15,59
505,44	16,23
505,65	25,03
505,85	39,71
506,05	-5,00
506,25	13,23
506,45	34,17
506,65	-5,60
506,85	-47,82
507,05	27,16
507,26	16,30
507,46	29,94
507,66	15,22
507,86	76,68
508,06	118,24
508,26	54,29
508,46	60,14
508,66	53,32
508,86	36,04
509,06	79,40
509,27	40,42
509,47	-25,29
509,67	32,59
509,87	-54,47
510,07	-23,16
510,27	44,63
510,47	61,59
510,67	33,82
510,87	46,24
511,07	2,58
511,28	19,97
511,48	47,44
511,68	28,80
511,88	76,11
512,08	14,92
512,28	103,38
512,48	24,85
512,68	38,38
512,88	76,61
513,08	75,25
513,28	89,03
513,48	26,99
513,68	125,48
513,89	138,86
514,09	125,69
514,29	150,95
514,49	219,75
514,69	76,21
514,89	39,76
515,09	60,42
515,29	88,56
515,49	34,99
515,69	41,47
515,89	22,35
516,09	16,32
516,29	-20,72
516,49	11,21
516,69	-2,73
516,89	13,31
517,09	71,41
517,29	30,53
517,50	50,11
517,70	52,62
517,90	-31,83
518,10	8,73
518,30	-0,40
518,50	39,81
518,70	-6,35
518,90	56,97
519,10	-45,18
519,30	21,02
519,50	9,89
519,70	10,53
519,90	-1,31
520,10	55,83
520,30	67,91
520,50	46,94
520,70	6,38
520,90	4,13
521,10	-28,88
521,30	-15,90
521,50	31,44
521,70	62,47
521,90	42,28
522,10	15,84
522,30	-7,82
522,50	13,15
522,70	-21,29
522,90	-22,79
523,10	-6,18
523,30	6,29
523,50	-10,87
523,70	65,39
523,90	-54,07
524,10	73,32
524,30	2,88
524,50	34,88
524,70	39,93
524,90	-53,47
525,10	41,86
525,30	27,32
525,50	39,88
525,70	112,75
525,90	66,97
526,10	-23,54
526,30	33,86
526,50	-7,63
526,70	-24,03
526,90	-0,88
527,10	46,36
527,30	13,36
527,50	112,29
527,70	62,32
527,90	7,60
528,10	4,17
528,30	23,00
528,50	41,44
528,70	23,04
528,90	68,99
529,10	30,71
529,30	-9,63
529,50	54,86
529,70	1,24
529,90	-16,03
530,10	-21,08
530,29	63,92
530,49	-11,51
530,69	7,13
530,89	63,29
531,09	-0,55
531,29	35,63
531,49	51,32
531,69	-0,66
531,89	-0,49
532,09	78,77
532,29	32,90
532,49	70,18
532,69	-21,89
532,89	-21,38
533,09	-49,20
533,29	78,38
533,49	30,17
533,68	56,40
533,88	36,93
534,08	-14,54
534,28	88,32
534,48	34,39
534,68	65,50
534,88	48,05
535,08	41,91
535,28	-18,85
535,48	58,65
535,68	15,33
535,88	48,88
536,08	12,21
536,27	29,72
536,47	18,31
536,67	-7,33
536,87	54,64
537,07	19,79
537,27	-15,34
537,47	70,22
537,67	44,01
537,87	59,47
538,07	0,11
538,27	32,38
538,46	8,19
538,66	15,86
538,86	10,16
539,06	17,17
539,26	45,45
539,46	-43,92
539,66	46,84
539,86	3,23
540,06	29,42
540,25	48,76
540,45	22,40
540,65	17,90
540,85	19,23
541,05	71,18
541,25	24,14
541,45	2,77
541,65	62,97
541,85	79,21
542,04	123,35
542,24	29,04
542,44	17,27
542,64	58,13
542,84	102,14
543,04	33,54
543,24	55,45
543,43	57,65
543,63	-46,62
543,83	60,71
544,03	60,75
544,23	-10,62
544,43	81,89
544,63	-1,66
544,82	-46,53
545,02	51,65
545,22	33,75
545,42	80,15
545,62	27,48
545,82	42,99
546,02	70,54
546,21	-50,68
546,41	52,33
546,61	44,26
546,81	31,23
547,01	16,39
547,21	-23,13
547,40	60,23
547,60	10,16
547,80	63,96
548,00	6,10
548,20	-37,39
548,40	75,92
548,59	-0,79
548,79	-15,29
548,99	103,25
549,19	2,83
549,39	42,29
549,59	86,78
549,78	29,04
549,98	12,01
550,18	-9,23
550,38	20,77
550,58	51,51
550,77	38,35
550,97	6,29
551,17	34,53
551,37	-16,22
551,57	-10,66
551,76	15,31
551,96	64,65
552,16	87,32
552,36	16,61
552,56	36,86
552,75	38,11
552,95	65,17
553,15	103,15
553,35	76,27
553,55	28,61
553,74	-21,13
553,94	17,15
554,14	32,05
554,34	93,82
554,54	42,65
554,73	5,95
554,93	43,28
555,13	-2,80
555,33	42,85
555,53	47,72
555,72	15,93
555,92	68,95
556,12	58,45
556,32	15,20
556,51	33,80
556,71	12,03
556,91	41,67
557,11	131,86
557,30	29,25
557,50	55,89
557,70	148,19
557,90	48,80
558,10	67,87
558,29	79,66
558,49	-6,54
558,69	-22,68
558,89	83,55
559,08	30,71
559,28	42,54
559,48	91,79
559,68	22,94
559,87	119,95
560,07	55,37
560,27	91,73
560,47	32,01
560,66	68,44
560,86	42,62
561,06	17,93
561,25	73,44
561,45	-11,32
561,65	50,97
561,85	69,74
562,04	36,09
562,24	30,53
562,44	100,27
562,64	147,69
562,83	91,23
563,03	72,19
563,23	97,85
563,42	19,33
563,62	90,84
563,82	64,42
564,02	118,60
564,21	23,61
564,41	28,83
564,61	88,66
564,80	63,95
565,00	51,67
565,20	55,89
565,40	83,52
565,59	62,65
565,79	57,69
565,99	77,06
566,18	119,85
566,38	110,70
566,58	374,07
566,78	705,10
566,97	1333,74
567,17	1959,97
567,37	2775,83
567,56	3456,95
567,76	3790,75
567,96	3693,65
568,15	3009,91
568,35	2165,26
568,55	1430,72
568,74	803,06
568,94	532,70
569,14	340,04
569,33	244,53
569,53	291,49
569,73	257,88
569,92	237,99
570,12	195,68
570,32	203,56
570,52	226,77
570,71	118,40
570,91	163,12
571,11	194,71
571,30	184,77
571,50	130,23
571,70	229,18
571,89	161,37
572,09	168,11
572,28	130,17
572,48	253,95
572,68	215,29
572,87	133,97
573,07	202,21
573,27	231,23
573,46	263,11
573,66	244,79
573,86	242,56
574,05	312,32
574,25	210,95
574,45	209,97
574,64	209,14
574,84	242,12
575,04	217,26
575,23	246,08
575,43	252,62
575,62	235,75
575,82	282,14
576,02	261,39
576,21	257,20
576,41	224,99
576,61	226,37
576,80	221,68
577,00	255,14
577,19	159,69
577,39	216,63
577,59	254,25
577,78	283,98
577,98	367,84
578,18	261,86
578,37	226,30
578,57	204,45
578,76	276,55
578,96	226,47
579,16	254,02
579,35	288,34
579,55	283,30
579,74	289,78
579,94	295,80
580,14	258,05
580,33	327,26
580,53	338,12
580,72	376,95
580,92	376,01
581,12	376,75
581,31	302,90
581,51	440,22
581,70	394,97
581,90	441,21
582,10	427,67
582,29	438,05
582,49	487,21
582,68	476,02
582,88	497,27
583,07	534,53
583,27	614,83
583,47	642,34
583,66	745,85
583,86	956,26
584,05	1213,88
584,25	1287,57
584,44	1500,46
584,64	1619,39
584,84	1631,43
585,03	1625,13
585,23	1611,01
585,42	1602,41
585,62	1443,47
585,81	1555,85
586,01	1534,35
586,20	1634,63
586,40	1727,51
586,60	2140,79
586,79	3009,52
586,99	7632,99
587,18	31395,47
587,38	64093,47
587,57	64148,53
587,77	64089,13
587,96	64132,14
588,16	64142,38
588,35	64117,81
588,55	64095,28
588,75	64066,61
588,94	64062,51
589,14	64080,94
589,33	64111,66
589,53	64062,51
589,72	64191,53
589,92	64156,72
590,11	64132,14
590,31	64146,48
590,50	64099,37
590,70	64166,96
590,89	64082,99
591,09	64042,03
591,28	64093,23
591,48	64076,85
591,67	64113,71
591,87	64179,24
592,06	64197,68
592,26	64115,76
592,45	64044,08
592,65	64068,65
592,84	64126,00
593,04	64085,04
593,23	64107,57
593,43	64177,20
593,62	62029,04
593,82	56181,79
594,01	49621,50
594,21	47732,84
594,40	44495,49
594,60	43577,43
594,79	41296,95
594,99	40829,23
595,18	38736,65
595,38	38481,82
595,57	35738,47
595,77	35413,56
595,96	30813,72
596,16	30474,80
596,35	25349,07
596,55	24946,96
596,74	16648,55
596,94	16117,00
597,13	14098,45
597,33	13915,33
597,52	12689,53
597,72	12450,52
597,91	11277,07
598,11	11031,80
598,30	9745,66
598,50	9488,74
598,69	8005,98
598,88	7801,30
599,08	5902,35
599,27	5620,55
599,47	2644,50
599,66	2146,61
599,86	352,39
600,05	283,17
600,25	304,98
600,44	326,29
600,64	328,85
600,83	314,12
601,02	225,01
601,22	263,53
601,41	227,79
601,61	239,35
601,80	196,46
602,00	274,69
602,19	297,04
602,38	234,16
602,58	212,19
602,77	188,99
602,97	288,79
603,16	242,48
603,36	209,50
603,55	214,12
603,74	161,68
603,94	168,57
604,13	191,90
604,33	170,47
604,52	196,83
604,72	223,09
604,91	191,85
605,10	195,22
605,30	166,07
605,49	166,10
605,69	228,39
605,88	210,77
606,07	170,30
606,27	199,44
606,46	218,37
606,66	175,41
606,85	177,37
607,04	212,07
607,24	174,28
607,43	142,38
607,63	190,43
607,82	119,31
608,01	150,30
608,21	192,43
608,40	151,91
608,60	75,17
608,79	165,69
608,98	186,04
609,18	146,17
609,37	172,79
609,57	229,57
609,76	129,27
609,95	125,66
610,15	152,28
610,34	220,61
610,53	200,35
610,73	141,17
610,92	153,07
611,11	170,06
611,31	92,01
611,50	84,26
611,70	130,53
611,89	106,66
612,08	181,84
612,28	197,92
612,47	147,32
612,66	113,65
612,86	122,37
613,05	186,65
613,24	112,37
613,44	230,22
613,63	159,20
613,82	166,27
614,02	332,97
614,21	325,72
614,41	526,18
614,60	630,91
614,79	755,00
614,99	802,90
615,18	788,22
615,37	695,13
615,57	548,42
615,76	427,30
615,95	212,58
616,15	210,71
616,34	212,27
616,53	145,04
616,73	137,65
616,92	148,68
617,11	90,52
617,30	89,79
617,50	141,38
617,69	100,98
617,88	147,19
618,08	69,11
618,27	112,15
618,46	83,84
618,66	116,82
618,85	110,74
619,04	108,36
619,24	85,12
619,43	21,85
619,62	146,36
619,82	121,79
620,01	85,81
620,20	60,18
620,39	53,32
620,59	159,06
620,78	107,33
620,97	116,73
621,17	54,94
621,36	156,66
621,55	207,58
621,74	95,15
621,94	69,22
622,13	73,06
622,32	67,78
622,52	113,87
622,71	108,23
622,90	47,32
623,09	124,34
623,29	88,06
623,48	106,38
623,67	10,33
623,86	61,07
624,06	129,63
624,25	89,14
624,44	87,90
624,64	32,26
624,83	131,68
625,02	96,83
625,21	7,84
625,41	32,73
625,60	133,19
625,79	31,50
625,98	63,05
626,18	103,48
626,37	122,98
626,56	85,26
626,75	63,17
626,95	57,56
627,14	78,28
627,33	114,74
627,52	134,54
627,72	30,45
627,91	87,44
628,10	17,35
628,29	66,77
628,49	65,29
628,68	134,38
628,87	78,76
629,06	32,86
629,25	58,85
629,45	80,25
629,64	109,32
629,83	57,50
630,02	132,42
630,22	54,90
630,41	42,34
630,60	61,25
630,79	99,78
630,98	85,13
631,18	100,72
631,37	83,22
631,56	42,24
631,75	111,81
631,94	78,18
632,14	109,61
632,33	26,03
632,52	59,43
632,71	92,75
632,90	110,14
633,10	82,94
633,29	123,03
633,48	27,68
633,67	69,37
633,86	154,03
634,06	102,41
634,25	144,43
634,44	137,42
634,63	169,04
634,82	76,59
635,02	123,37
635,21	14,94
635,40	66,56
635,59	23,51
635,78	70,40
635,97	34,11
636,17	25,75
636,36	55,46
636,55	150,17
636,74	97,17
636,93	47,14
637,12	64,51
637,32	45,60
637,51	46,98
637,70	10,03
637,89	102,15
638,08	94,26
638,27	70,80
638,47	43,98
638,66	77,12
638,85	58,26
639,04	-35,99
639,23	55,77
639,42	81,09
639,62	21,84
639,81	85,68
640,00	48,66
640,19	99,83
640,38	30,38
640,57	58,34
640,76	35,88
640,95	132,53
641,15	51,01
641,34	58,70
641,53	60,53
641,72	51,00
641,91	66,62
642,10	-7,89
642,29	93,55
642,49	38,55
642,68	106,75
642,87	83,91
643,06	61,66
643,25	92,01
643,44	66,00
643,63	89,53
643,82	62,33
644,01	20,38
644,21	65,34
644,40	86,00
644,59	37,27
644,78	120,42
644,97	35,28
645,16	48,32
645,35	50,84
645,54	74,23
645,73	44,93
645,92	66,35
646,12	68,32
646,31	102,89
646,50	58,00
646,69	35,83
646,88	90,85
647,07	100,52
647,26	94,22
647,45	47,55
647,64	74,29
647,83	61,64
648,02	-7,83
648,22	66,39
648,41	65,90
648,60	40,02
648,79	83,93
648,98	103,59
649,17	60,56
649,36	68,71
649,55	8,35
649,74	21,05
649,93	37,22
650,12	-16,16
650,31	143,21
650,50	56,84
650,69	74,16
650,88	47,63
651,08	49,48
651,27	21,34
651,46	50,17
651,65	-10,94
651,84	79,63
652,03	48,21
652,22	76,82
652,41	57,33
652,60	-7,25
652,79	123,97
652,98	58,37
653,17	90,47
653,36	-4,20
653,55	63,59
653,74	47,31
653,93	85,68
654,12	114,57
654,31	86,11
654,50	75,48
654,69	62,92
654,88	109,44
655,07	10,15
655,26	19,43
655,45	35,60
655,64	19,36
655,83	11,17
656,02	83,48
656,21	108,94
656,40	90,68
656,59	113,09
656,78	-25,71
656,97	65,93
657,17	78,45
657,36	69,73
657,55	48,30
657,74	74,82
657,93	-36,46
658,12	5,09
658,31	49,13
658,50	34,22
658,69	73,48
658,87	73,30
659,06	-17,92
659,25	36,25
659,44	44,30
659,63	81,30
659,82	-44,24
660,01	46,00
660,20	55,67
660,39	58,62
660,58	83,98
660,77	91,34
660,96	37,23
661,15	74,26
661,34	-3,32
661,53	30,53
661,72	61,77
661,91	16,39
662,10	68,89
662,29	-27,83
662,48	39,72
662,67	28,50
662,86	5,86
663,05	-10,30
663,24	16,58
663,43	-11,80
663,62	-9,44
663,81	75,34
664,00	76,92
664,19	67,30
664,38	11,80
664,57	64,60
664,76	44,49
664,94	-20,71
665,13	28,12
665,32	43,20
665,51	22,03
665,70	24,66
665,89	45,59
666,08	-7,22
666,27	117,72
666,46	42,18
666,65	58,62
666,84	30,84
667,03	80,38
667,22	138,89
667,41	50,16
667,60	1,13
667,78	13,20
667,97	-15,10
668,16	3,35
668,35	75,94
668,54	12,78
668,73	-6,65
668,92	53,05
669,11	-2,56
669,30	8,92
669,49	3,78
669,68	43,84
669,86	54,13
670,05	42,69
670,24	-44,78
670,43	26,38
670,62	-39,81
670,81	31,47
671,00	42,86
671,19	53,93
671,38	61,38
671,57	26,88
671,75	24,69
671,94	93,42
672,13	91,48
672,32	31,54
672,51	119,23
672,70	10,01
672,89	37,96
673,08	106,32
673,26	10,66
673,45	-11,50
673,64	71,26
673,83	96,52
674,02	-60,17
674,21	20,85
674,40	8,70
674,59	-16,82
674,77	39,10
674,96	26,37
675,15	22,64
675,34	27,45
675,53	85,87
675,72	27,54
675,91	51,94
676,09	-1,88
676,28	28,18
676,47	-21,58
676,66	44,12
676,85	-0,90
677,04	-49,08
677,22	65,21
677,41	25,29
677,60	-0,10
677,79	34,61
677,98	12,02
678,17	76,69
678,36	52,95
678,54	108,08
678,73	30,40
678,92	11,30
679,11	47,55
679,30	43,87
679,48	-35,12
679,67	68,89
679,86	-30,97
680,05	1,84
680,24	20,78
680,43	32,78
680,61	25,80
680,80	12,05
680,99	71,98
681,18	50,12
681,37	3,52
681,55	24,11
681,74	36,99
681,93	10,40
682,12	4,35
682,31	20,60
682,49	31,36
682,68	-27,66
682,87	18,49
683,06	46,08
683,25	29,11
683,43	-11,44
683,62	34,25
683,81	44,65
684,00	-2,03
684,19	40,24
684,37	78,71
684,56	51,01
684,75	21,35
684,94	-45,38
685,12	8,26
685,31	38,75
685,50	36,16
685,69	57,64
685,88	30,04
686,06	9,33
686,25	63,46
686,44	-49,13
686,63	23,16
686,81	30,82
687,00	53,44
687,19	23,50
687,38	-33,99
687,56	48,48
687,75	80,29
687,94	23,26
688,13	78,66
688,31	122,76
688,50	24,92
688,69	41,29
688,88	136,58
689,06	-53,04
689,25	-20,09
689,44	62,32
689,63	-45,77
689,81	-6,71
690,00	41,81
690,19	9,77
690,38	42,21
690,56	-29,98
690,75	31,62
690,94	24,49
691,13	85,29
691,31	-34,89
691,50	2,59
691,69	67,63
691,87	75,13
692,06	63,48
692,25	-65,52
692,44	-4,09
692,62	44,84
692,81	9,16
693,00	-40,70
693,18	39,34
693,37	-13,19
693,56	-0,74
693,75	8,59
693,93	13,54
694,12	15,24
694,31	-32,21
694,49	-14,84
694,68	-16,04
694,87	54,72
695,05	41,26
695,24	72,55
695,43	69,56
695,62	91,23
695,80	45,00
695,99	2,55
696,18	58,70
696,36	90,12
696,55	146,85
696,74	49,90
696,92	14,31
697,11	-23,53
697,30	17,92
697,48	60,53
697,67	60,99
697,86	80,44
698,04	-2,84
698,23	-4,62
698,42	44,50
698,60	-81,18
698,79	59,57
698,98	55,18
699,16	52,24
699,35	26,29
699,54	-24,81
699,72	36,49
699,91	71,84
700,10	-8,93
700,28	44,81
700,47	-50,05
700,66	23,61
700,84	-17,12
701,03	44,21
701,21	30,19
701,40	-18,13
701,59	64,79
701,77	61,66
701,96	1,73
702,15	-55,29
702,33	4,83
702,52	142,39
702,71	17,42
702,89	94,18
703,08	44,90
703,26	58,37
703,45	37,44
703,64	46,99
703,82	-8,22
704,01	-2,16
704,20	-28,11
704,38	76,37
704,57	29,05
704,75	72,83
704,94	10,11
705,13	40,53
705,31	9,62
705,50	36,90
705,68	23,86
705,87	-6,39
706,06	87,88
706,24	53,79
706,43	8,72
706,61	56,46
706,80	37,72
706,99	53,52
707,17	54,42
707,36	-37,41
707,54	11,80
707,73	-24,62
707,92	-53,49
708,10	-22,40
708,29	42,37
708,47	18,54
708,66	-13,94
708,84	-39,46
709,03	42,13
709,22	0,97
709,40	-15,83
709,59	-11,59
709,77	24,76
709,96	34,69
710,14	-5,11
710,33	-0,99
710,52	24,13
710,70	-36,28
710,89	-15,44
711,07	-16,18
711,26	-5,07
711,44	42,51
711,63	60,11
711,81	-6,09
712,00	35,90
712,19	4,09
712,37	-1,98
712,56	59,18
712,74	11,89
712,93	-32,08
713,11	5,24
713,30	75,91
713,48	-8,29
713,67	33,68
713,85	14,45
714,04	45,63
714,22	15,14
714,41	14,44
714,59	-31,49
714,78	7,18
714,97	-1,23
715,15	-2,56
715,34	15,69
715,52	51,97
715,71	55,32
715,89	47,02
716,08	14,81
716,26	10,16
716,45	37,78
716,63	78,86
716,82	14,96
717,00	50,91
717,19	15,18
717,37	37,80
717,56	-10,43
717,74	25,32
717,93	34,62
718,11	19,94
718,30	12,79
718,48	43,23
718,67	47,71
718,85	-39,39
719,04	55,24
719,22	29,17
719,41	50,17
719,59	34,88
719,78	53,13
719,96	-9,11
720,15	34,51
720,33	3,02
720,52	-48,15
720,70	27,27
720,88	17,14
721,07	42,93
721,25	-12,33
721,44	59,52
721,62	-10,14
721,81	13,94
721,99	39,46
722,18	11,94
722,36	0,29
722,55	50,41
722,73	10,17
722,92	-5,03
723,10	68,60
723,28	13,80
723,47	61,15
723,65	45,20
723,84	-51,34
724,02	48,50
724,21	101,11
724,39	45,86
724,58	28,27
724,76	-1,41
724,94	-24,95
725,13	15,00
725,31	43,25
725,50	91,71
725,68	38,69
725,87	39,55
726,05	31,09
726,23	12,95
726,42	60,07
726,60	45,15
726,79	11,24
726,97	80,23
727,16	-44,11
727,34	47,45
727,52	44,73
727,71	2,42
727,89	40,47
728,08	86,39
728,26	-75,40
728,44	4,80
728,63	21,63
728,81	56,05
729,00	20,35
729,18	3,06
729,36	-0,10
729,55	19,32
729,73	-37,84
729,92	34,38
730,10	22,29
730,28	41,41
730,47	-14,91
730,65	49,83
730,84	-10,54
731,02	-33,65
731,20	14,71
731,39	-4,25
731,57	28,89
731,75	-25,41
731,94	-26,49
732,12	17,22
732,31	45,07
732,49	-52,86
732,67	2,07
732,86	-36,68
733,04	-7,39
733,22	42,69
733,41	18,52
733,59	-13,22
733,78	-75,78
733,96	8,14
734,14	-0,63
734,33	-17,07
734,51	-43,26
734,69	-20,21
734,88	-17,72
735,06	45,30
735,24	-7,80
735,43	0,87
735,61	68,55
735,79	39,43
735,98	85,01
736,16	4,80
736,34	45,27
736,53	-18,92
736,71	99,14
736,89	26,59
737,08	65,35
737,26	49,39
737,44	40,90
737,63	148,01
737,81	74,30
737,99	30,96
738,18	18,93
738,36	63,15
738,54	54,23
738,73	28,86
738,91	-20,33
739,09	-102,30
739,28	-29,48
739,46	-5,44
739,64	7,95
739,82	-26,42
740,01	25,54
740,19	39,68
740,37	78,39
740,56	8,39
740,74	-38,86
740,92	-35,88
741,11	-0,88
741,29	11,16
741,47	-35,08
741,65	6,70
741,84	-6,60
742,02	2,49
742,20	-27,75
742,39	13,79
742,57	57,71
742,75	24,54
742,93	63,80
743,12	1,03
743,30	58,28
743,48	70,95
743,67	41,20
743,85	19,05
744,03	-17,16
744,21	-36,71
744,40	3,17
744,58	7,89
744,76	-6,36
744,94	-30,38
745,13	7,24
745,31	54,11
745,49	50,98
745,67	-19,00
745,86	-7,33
746,04	-10,65
746,22	-6,77
746,40	52,38
746,59	2,29
746,77	50,74
746,95	98,41
747,13	40,55
747,32	-21,93
747,50	82,53
747,68	65,78
747,86	44,83
748,05	-5,55
748,23	32,94
748,41	-40,87
748,59	65,33
748,77	-17,65
748,96	26,54
749,14	9,81
749,32	52,41
749,50	61,16
749,69	76,30
749,87	87,60
750,05	106,08
750,23	118,01
750,41	53,84
750,60	96,82
750,78	59,23
750,96	28,09
751,14	-13,70
751,32	-3,74
751,51	68,22
751,69	40,99
751,87	-50,94
752,05	42,67
752,23	51,83
752,42	-3,90
752,60	8,58
752,78	102,05
752,96	15,21
753,14	71,02
753,33	34,84
753,51	2,40
753,69	11,20
753,87	106,52
754,05	-59,99
754,23	55,80
754,42	20,93
754,60	-80,35
754,78	5,71
754,96	-32,30
755,14	19,12
755,32	-11,99
755,51	29,45
755,69	28,47
755,87	12,70
756,05	-44,57
756,23	26,31
756,41	82,98
756,60	-18,20
756,78	65,31
756,96	48,80
757,14	60,38
757,32	-58,02
757,50	28,81
757,68	69,99
757,87	30,88
758,05	48,20
758,23	-38,99
758,41	14,60
758,59	-27,05
758,77	-6,43
758,95	65,54
759,14	9,30
759,32	38,32
759,50	-9,00
759,68	31,37
759,86	31,80
760,04	23,41
760,22	22,40
760,40	9,91
760,59	-39,96
760,77	-5,96
760,95	17,96
761,13	21,42
761,31	-10,56
761,49	31,74
761,67	38,42
761,85	39,75
762,03	84,62
762,22	193,59
762,40	199,79
762,58	352,51
762,76	340,02
762,94	295,17
763,12	199,77
763,30	161,14
763,48	106,52
763,66	102,18
763,84	36,43
764,02	70,57
764,21	127,70
764,39	-47,25
764,57	81,94
764,75	68,86
764,93	16,26
765,11	165,52
765,29	240,14
765,47	224,02
765,65	299,71
765,83	262,75
766,01	247,08
766,19	197,05
766,37	153,54
766,56	143,09
766,74	75,13
766,92	87,61
767,10	87,90
767,28	32,33
767,46	33,47
767,64	52,67
767,82	26,95
768,00	45,86
768,18	42,30
768,36	21,85
768,54	110,25
768,72	139,37
768,90	129,04
769,08	185,89
769,26	206,62
769,44	156,74
769,62	113,66
769,80	61,24
769,98	45,53
770,16	-5,22
770,34	18,42
770,52	-2,91
770,71	11,96
770,89	56,81
771,07	134,09
771,25	88,47
771,43	105,83
771,61	65,02
771,79	145,21
771,97	118,83
772,15	57,44
772,33	120,95
772,51	32,17
772,69	19,88
772,87	47,92
773,05	7,39
773,23	-5,42
773,41	39,66
773,59	27,62
773,77	21,64
773,95	-5,18
774,13	2,74
774,31	20,43
774,49	27,86
774,67	-2,46
774,85	66,95
775,03	19,03
775,21	36,97
775,39	35,05
775,57	-41,01
775,75	33,07
775,93	14,27
776,10	87,23
776,28	29,85
776,46	27,03
776,64	-27,75
776,82	11,05
777,00	25,92
777,18	64,01
777,36	-35,53
777,54	18,29
777,72	-6,96
777,90	-11,50
778,08	56,55
778,26	45,09
778,44	-5,00
778,62	83,93
778,80	-16,31
778,98	7,19
779,16	35,09
779,34	69,22
779,52	-10,70
779,70	88,37
779,88	-12,22
780,05	21,33
780,23	-33,28
780,41	13,21
780,59	-6,75
780,77	-0,03
780,95	-24,03
781,13	-35,73
781,31	-67,47
781,49	70,36
781,67	38,69
781,85	1,43
782,03	-40,65
782,21	5,13
782,39	-4,17
782,56	44,20
782,74	62,61
782,92	35,70
783,10	12,14
783,28	-52,36
783,46	56,35
783,64	38,41
783,82	4,98
784,00	-14,81
784,18	51,12
784,35	-4,77
784,53	21,82
784,71	-8,79
784,89	38,11
785,07	73,70
785,25	48,24
785,43	50,32
785,61	103,42
785,79	-4,42
785,96	-35,44
786,14	49,06
786,32	-63,02
786,50	19,17
786,68	33,95
786,86	17,35
787,04	-37,61
787,22	57,49
787,39	35,96
787,57	-4,99
787,75	17,65
787,93	-4,72
788,11	27,08
788,29	-45,63
788,47	-40,98
788,65	9,08
788,82	-37,03
789,00	-10,54
789,18	-53,52
789,36	-26,20
789,54	24,74
789,72	13,85
789,89	17,97
790,07	7,73
790,25	69,73
790,43	-33,22
790,61	32,97
790,79	51,98
790,96	-57,05
791,14	72,38
791,32	17,12
791,50	84,86
791,68	-4,71
791,86	60,26
792,03	50,30
792,21	18,63
792,39	0,77
792,57	10,81
792,75	46,38
792,93	-47,16
793,10	33,92
793,28	7,58
793,46	-57,66
793,64	52,86
793,82	27,30
793,99	-10,30
794,17	84,73
794,35	82,06
794,53	106,39
794,71	62,81
794,88	25,43
795,06	20,57
795,24	13,73
795,42	66,47
795,60	20,48
795,77	19,26
795,95	52,74
796,13	-75,31
796,31	59,06
796,49	31,99
796,66	3,75
796,84	20,88
797,02	38,28
797,20	-5,28
797,37	43,07
797,55	19,93
797,73	19,40
797,91	-10,20
798,08	30,35
798,26	26,11
798,44	72,87
798,62	28,62
798,80	48,97
798,97	30,72
799,15	-3,19
799,33	-6,57
799,51	8,60
799,68	53,74
799,86	0,29
800,04	73,08
800,22	69,34
800,39	68,98
800,57	102,35
800,75	50,79
800,93	105,05
801,10	81,76
801,28	-0,26
801,46	21,26
801,63	11,36
801,81	18,91
801,99	39,79
802,17	43,22
802,34	12,83
802,52	48,34
802,70	-14,68
802,88	18,23
803,05	24,36
803,23	-49,89
803,41	87,00
803,58	-21,77
803,76	6,84
803,94	28,59
804,12	-22,48
804,29	27,75
804,47	104,52
804,65	-59,05
804,82	50,23
805,00	-27,39
805,18	35,97
805,35	43,71
805,53	58,22
805,71	29,95
805,89	85,19
806,06	3,74
806,24	0,77
806,42	5,50
806,59	-4,74
806,77	-2,16
806,95	1,98
807,12	-18,27
807,30	63,13
807,48	-7,85
807,65	92,38
807,83	-31,92
808,01	-35,26
808,18	34,45
808,36	1,49
808,54	-0,79
808,71	95,51
808,89	41,02
809,07	72,58
809,24	139,07
809,42	118,22
809,60	47,35
809,77	88,81
809,95	81,16
810,13	147,09
810,30	194,36
810,48	267,23
810,66	213,86
810,83	237,73
811,01	235,28
811,18	197,32
811,36	154,24
811,54	119,94
811,71	31,95
811,89	106,42
812,07	67,84
812,24	24,38
812,42	21,47
812,59	60,83
812,77	-3,06
812,95	1,75
813,12	93,00
813,30	37,52
813,48	64,40
813,65	93,27
813,83	-10,54
814,00	9,32
814,18	90,51
814,36	-0,85
814,53	-3,13
814,71	83,78
814,88	34,42
815,06	14,42
815,24	50,23
815,41	42,87
815,59	72,29
815,76	56,07
815,94	93,36
816,12	91,49
816,29	50,76
816,47	195,63
816,64	372,80
816,82	911,25
817,00	1890,64
817,17	3159,83
817,35	4321,40
817,52	4821,24
817,70	5040,91
817,87	5168,56
818,05	5414,55
818,23	6142,46
818,40	7555,86
818,58	8455,76
818,75	8761,17
818,93	8128,14
819,10	6757,27
819,28	4788,12
819,46	3243,68
819,63	2205,03
819,81	1693,81
819,98	1258,52
820,16	931,42
820,33	717,36
820,51	560,50
820,68	382,19
820,86	323,25
821,03	280,43
821,21	212,51
821,39	167,49
821,56	168,89
821,74	99,84
821,91	89,30
822,09	97,35
822,26	73,86
822,44	100,90
822,61	51,33
822,79	58,44
822,96	68,60
823,14	48,94
823,31	56,95
823,49	15,84
823,66	14,81
823,84	8,75
824,01	-6,22
824,19	-3,63
824,36	10,47
824,54	26,80
824,71	-10,78
824,89	-26,37
825,06	41,05
825,24	102,44
825,41	97,64
825,59	28,45
825,76	22,75
825,94	3,42
826,11	79,30
826,29	10,57
826,46	-26,76
826,64	41,28
826,81	9,03
826,99	28,49
827,16	12,96
827,34	86,20
827,51	16,70
827,69	-35,00
827,86	87,69
828,04	104,44
828,21	118,32
828,39	34,54
828,56	43,14
828,74	-10,54
828,91	9,76
829,09	1,65
829,26	-12,31
829,43	22,64
829,61	25,74
829,78	32,91
829,96	19,69
830,13	36,03
830,31	4,59
830,48	47,88
830,66	-2,07
830,83	30,52
831,01	-17,69
831,18	-1,66
831,35	32,61
831,53	-27,96
831,70	53,76
831,88	-67,58
832,05	57,58
832,23	-45,55
832,40	32,40
832,57	28,42
832,75	35,68
832,92	15,22
833,10	30,15
833,27	9,25
833,45	2,52
833,62	29,69
833,79	34,27
833,97	-4,46
834,14	50,07
834,32	41,87
834,49	96,16
834,66	52,18
834,84	-4,38
835,01	-32,08
835,19	8,87
835,36	13,54
835,53	65,94
835,71	34,68
835,88	-2,96
836,06	-17,10
836,23	53,98
836,40	67,01
836,58	73,98
836,75	15,53
836,93	4,16
837,10	-32,53
837,27	59,09
837,45	8,51
837,62	14,82
837,79	49,75
837,97	58,06
838,14	13,57
838,32	65,63
838,49	22,39
838,66	-0,45
838,84	-13,07
839,01	-41,45
839,18	79,64
839,36	71,82
839,53	83,42
839,70	46,34
839,88	95,69
840,05	77,18
840,23	100,03
840,40	43,35
840,57	14,44
840,75	97,71
840,92	23,96
841,09	15,56
841,27	66,12
841,44	96,50
841,61	44,41
841,79	55,62
841,96	103,81
842,13	90,63
842,31	37,01
842,48	-6,26
842,65	25,77
842,83	4,05
843,00	-17,29
843,17	31,49
843,35	81,14
843,52	57,86
843,69	-40,40
843,86	5,49
844,04	65,92
844,21	74,71
844,38	4,61
844,56	49,40
844,73	16,64
844,90	8,15
845,08	20,53
845,25	40,84
845,42	29,16
845,60	-44,70
845,77	21,86
845,94	-4,11
846,11	-24,37
846,29	34,03
846,46	36,20
846,63	20,10
846,81	20,18
846,98	-2,04
847,15	41,85
847,32	-1,03
847,50	33,10
847,67	-30,89
847,84	-22,16
848,01	78,47
848,19	57,55
848,36	5,05
848,53	-15,95
848,71	21,92
848,88	0,63
849,05	9,74
849,22	59,79
849,40	-57,06
849,57	30,58
849,74	-33,27
849,91	-52,53
850,09	28,57
850,26	53,50
850,43	29,03
850,60	17,91
850,78	24,41
850,95	54,86
851,12	144,41
851,29	-27,08
851,47	-40,73
851,64	60,94
851,81	22,36
851,98	25,18
852,15	105,71
852,33	-5,95
852,50	-15,98
852,67	59,34
852,84	38,90
853,02	-3,68
853,19	22,62
853,36	5,94
853,53	26,10
853,70	79,62
853,88	23,50
854,05	-20,30
854,22	-24,31
854,39	1,02
854,56	-4,10
854,74	-16,51
854,91	-18,54
855,08	-0,99
855,25	-7,03
855,42	68,17
855,60	33,84
855,77	4,34
855,94	48,46
856,11	34,68
856,28	-18,19
856,46	-37,61
856,63	-31,24
856,80	8,61
856,97	54,85
857,14	8,18
857,31	24,65
857,49	-29,22
857,66	37,20
857,83	28,74
858,00	-28,00
858,17	55,29
858,34	28,49
858,52	53,21
858,69	65,69
858,86	66,59
859,03	47,80
859,20	34,91
859,37	94,18
859,55	90,51
859,72	49,12
859,89	0,94
860,06	-29,05
860,23	85,24
860,40	-24,60
860,57	-6,41
860,75	25,73
860,92	34,89
861,09	5,71
861,26	-16,45
861,43	5,91
861,60	34,57
861,77	50,37
861,95	-49,10
862,12	-19,18
862,29	56,73
862,46	-6,35
862,63	-17,20
862,80	12,98
862,97	22,45
863,14	48,43
863,31	-12,13
863,49	-0,87
863,66	-7,01
863,83	20,39
864,00	-4,86
864,17	9,05
864,34	70,92
864,51	-21,28
864,68	7,63
864,85	48,85
865,02	-43,20
865,20	35,55
865,37	31,62
865,54	43,89
865,71	12,55
865,88	20,68
866,05	41,16
866,22	22,14
866,39	-16,37
866,56	-16,32
866,73	-11,94
866,90	6,81
867,07	73,41
867,25	49,62
867,42	72,54
867,59	-37,23
867,76	8,02
867,93	28,90
868,10	0,60
868,27	28,62
868,44	25,47
868,61	9,46
868,78	-5,20
868,95	61,00
869,12	8,21
869,29	66,51
869,46	-27,54
869,63	78,83
869,80	34,40
869,97	-40,32
870,14	66,87
870,32	-25,42
870,49	-8,30
870,66	28,40
870,83	57,47
871,00	8,85
871,17	31,80
871,34	-26,49
871,51	10,98
871,68	30,02
871,85	-73,48
872,02	10,17
872,19	8,07
872,36	44,22
872,53	51,03
872,70	-2,04
872,87	40,10
873,04	-11,44
873,21	-27,38
873,38	27,68
873,55	64,83
873,72	-9,21
873,89	41,66
874,06	43,48
874,23	15,29
874,40	9,97
874,57	-3,80
874,74	-8,45
874,91	62,62
875,08	29,74
875,25	-7,53
875,42	75,35
875,59	-7,76
875,76	-28,28
875,93	50,94
876,10	12,46
876,27	23,65
876,44	-9,19
876,61	10,57
876,78	15,73
876,95	14,39
877,12	4,35
877,29	23,88
877,46	-33,45
877,62	23,58
877,79	-31,96
877,96	40,61
878,13	27,05
878,30	-32,37
878,47	29,51
878,64	-54,66
878,81	-32,32
878,98	-15,18
879,15	12,35
879,32	42,79
879,49	3,56
879,66	-7,48
879,83	-19,02
880,00	-12,40
880,17	52,57
880,34	15,00
880,51	88,34
880,67	116,29
880,84	10,62
881,01	-24,10
881,18	2,13
881,35	92,78
881,52	-11,62
881,69	50,27
881,86	-5,01
882,03	-15,61
882,20	40,78
882,37	-46,07
882,54	27,90
882,70	48,86
882,87	38,50
883,04	52,39
883,21	-5,23
883,38	44,44
883,55	31,95
883,72	-28,24
883,89	2,08
884,06	12,69
884,23	27,80
884,39	38,79
884,56	1,08
884,73	89,14
884,90	19,02
885,07	19,88
885,24	60,31
885,41	25,57
885,58	51,86
885,74	77,90
885,91	0,29
886,08	9,31
886,25	51,43
886,42	15,12
886,59	95,61
886,76	-14,93
886,93	-7,67
887,09	44,23
887,26	-25,07
887,43	-4,27
887,60	34,56
887,77	7,30
887,94	-13,20
888,10	6,40
888,27	0,24
888,44	33,91
888,61	50,06
888,78	23,87
888,95	-23,37
889,12	-33,50
889,28	-0,13
889,45	40,65
889,62	57,33
889,79	-23,30
889,96	-63,65
890,13	20,57
890,29	0,69
890,46	5,02
890,63	25,85
890,80	-51,92
890,97	4,07
891,13	-8,33
891,30	29,06
891,47	-17,10
891,64	13,45
891,81	40,46
891,98	33,49
892,14	49,99
892,31	-23,40
892,48	-61,42
892,65	-37,83
892,82	45,63
892,98	81,66
893,15	-21,02
893,32	37,49
>>>>>End Processed Spectral Data<<<<<
