SpectraSuite Datei
++++++++++++++++++++++++++++++++++++
Datum: Mon Feb 18 15:39:55 CET 2019
Benutzer: Admin
Dark-Spektrum vorhanden: Ja
Referenz-Spektrum vorhanden: Ja
Zahl der probierten Teilspektren: 1
Spektrometer: USB4F05832
Integrationszeit (usec): 3800 (USB4F05832)
Spektren Durchschnitt berechnet: 1052 (USB4F05832)
Boxcar Glättung: 0 (USB4F05832)
Dunkelstromkorrektur: Nein (USB4F05832)
Puls/Lampe aktiviert: Nein (USB4F05832)
Correct for Detector Non-linearity: Nein (USB4F05832)
Streulichtkorrektur: Nein (USB4F05832)
Anzahl Pixel in verarbeitetem Spektrum: 3648
>>>>>Begin Processed Spectral Data<<<<<
177,54	31,18
177,75	31,18
177,97	31,18
178,19	-20,29
178,41	28,66
178,63	58,08
178,85	11,30
179,07	27,26
179,29	-40,17
179,51	-40,50
179,73	84,07
179,95	-6,56
180,17	1,90
180,39	-4,94
180,61	38,53
180,83	-19,41
181,05	30,05
181,27	-46,97
181,49	25,73
181,71	-38,65
181,92	-18,63
182,14	6,64
182,36	-31,76
182,58	2,69
182,80	26,51
183,02	46,84
183,24	136,33
183,46	6,12
183,68	-6,76
183,90	10,65
184,12	2,71
184,34	47,67
184,56	34,48
184,78	80,12
185,00	14,07
185,21	1,73
185,43	14,59
185,65	-0,00
185,87	6,30
186,09	-4,51
186,31	39,45
186,53	-3,11
186,75	68,98
186,97	-6,43
187,19	41,58
187,41	33,51
187,63	25,31
187,84	-14,44
188,06	30,23
188,28	-10,67
188,50	-6,59
188,72	-38,34
188,94	2,33
189,16	60,85
189,38	64,88
189,60	-22,66
189,82	49,54
190,03	58,77
190,25	80,95
190,47	35,35
190,69	37,32
190,91	5,01
191,13	7,64
191,35	58,75
191,57	20,07
191,79	-12,30
192,01	-24,47
192,22	60,07
192,44	-6,72
192,66	-44,91
192,88	37,79
193,10	39,03
193,32	51,00
193,54	-9,38
193,76	-21,79
193,98	106,79
194,19	-43,99
194,41	-7,00
194,63	39,97
194,85	34,32
195,07	49,44
195,29	62,93
195,51	-14,21
195,73	15,23
195,94	-32,65
196,16	-21,68
196,38	40,43
196,60	77,57
196,82	10,14
197,04	17,69
197,26	-33,90
197,48	40,69
197,69	21,22
197,91	32,87
198,13	70,80
198,35	20,43
198,57	14,47
198,79	106,24
199,01	53,68
199,22	44,19
199,44	64,97
199,66	-31,76
199,88	28,17
200,10	33,79
200,32	54,00
200,54	-23,93
200,75	23,26
200,97	25,90
201,19	35,05
201,41	87,42
201,63	5,13
201,85	-23,18
202,06	60,53
202,28	22,80
202,50	13,72
202,72	37,28
202,94	-1,55
203,16	68,05
203,38	15,28
203,59	22,95
203,81	40,67
204,03	5,00
204,25	-17,52
204,47	46,95
204,69	13,69
204,90	48,14
205,12	38,62
205,34	34,85
205,56	2,80
205,78	67,99
206,00	58,00
206,21	14,32
206,43	39,75
206,65	70,41
206,87	5,79
207,09	3,81
207,30	-7,62
207,52	94,90
207,74	31,78
207,96	34,70
208,18	5,87
208,40	115,39
208,61	17,98
208,83	12,14
209,05	37,75
209,27	83,28
209,49	49,29
209,70	45,10
209,92	-5,17
210,14	-9,12
210,36	31,40
210,58	-17,31
210,79	71,83
211,01	-3,97
211,23	31,93
211,45	59,91
211,67	55,89
211,88	26,22
212,10	3,39
212,32	36,24
212,54	67,28
212,76	-5,72
212,97	71,16
213,19	24,45
213,41	-21,45
213,63	27,56
213,85	32,62
214,06	2,02
214,28	-8,34
214,50	16,62
214,72	46,35
214,94	35,79
215,15	49,41
215,37	88,68
215,59	-17,72
215,81	60,19
216,02	49,95
216,24	54,05
216,46	25,27
216,68	-15,33
216,90	13,74
217,11	-4,32
217,33	33,53
217,55	50,69
217,77	62,25
217,98	44,61
218,20	26,52
218,42	-40,61
218,64	-41,38
218,85	7,14
219,07	12,48
219,29	43,15
219,51	-5,11
219,73	-16,24
219,94	-9,65
220,16	17,02
220,38	50,67
220,60	3,38
220,81	15,88
221,03	-21,58
221,25	-37,53
221,47	-71,67
221,68	17,15
221,90	59,28
222,12	-6,14
222,34	8,80
222,55	-17,14
222,77	55,16
222,99	31,07
223,21	-1,86
223,42	27,53
223,64	28,55
223,86	31,56
224,08	69,07
224,29	21,35
224,51	39,22
224,73	33,52
224,94	-17,89
225,16	9,10
225,38	11,59
225,60	42,29
225,81	32,28
226,03	74,74
226,25	52,07
226,47	32,14
226,68	41,47
226,90	66,07
227,12	54,04
227,33	74,24
227,55	62,83
227,77	4,23
227,99	72,19
228,20	22,83
228,42	44,68
228,64	70,11
228,86	15,34
229,07	12,24
229,29	56,90
229,51	-21,71
229,72	29,33
229,94	-3,23
230,16	38,09
230,38	26,54
230,59	64,05
230,81	-9,39
231,03	71,10
231,24	40,83
231,46	61,28
231,68	66,54
231,89	16,42
232,11	-0,66
232,33	-33,81
232,55	21,33
232,76	103,89
232,98	-20,92
233,20	35,58
233,41	33,86
233,63	0,43
233,85	-28,76
234,06	71,90
234,28	-15,10
234,50	58,44
234,71	35,36
234,93	-5,32
235,15	29,43
235,37	-14,67
235,58	57,84
235,80	-24,00
236,02	56,42
236,23	62,61
236,45	44,39
236,67	2,38
236,88	-21,80
237,10	43,50
237,32	22,63
237,53	16,01
237,75	47,48
237,97	10,79
238,18	14,33
238,40	83,72
238,62	46,85
238,83	72,10
239,05	28,48
239,27	-14,81
239,48	66,10
239,70	-41,45
239,92	40,75
240,13	-15,04
240,35	8,91
240,57	60,79
240,78	70,17
241,00	39,31
241,22	12,72
241,43	6,97
241,65	8,02
241,87	57,13
242,08	3,41
242,30	-5,26
242,52	-30,77
242,73	32,74
242,95	41,33
243,16	19,89
243,38	13,93
243,60	3,82
243,81	7,16
244,03	-22,31
244,25	73,34
244,46	48,78
244,68	-5,12
244,90	57,60
245,11	37,19
245,33	83,44
245,55	38,37
245,76	17,51
245,98	4,70
246,19	23,97
246,41	83,94
246,63	29,09
246,84	-11,13
247,06	103,87
247,28	3,32
247,49	37,28
247,71	102,57
247,92	-3,33
248,14	10,74
248,36	-9,86
248,57	13,02
248,79	41,28
249,01	-10,83
249,22	42,49
249,44	18,59
249,65	67,45
249,87	50,28
250,09	11,88
250,30	31,55
250,52	33,00
250,73	77,84
250,95	38,05
251,17	83,77
251,38	52,46
251,60	-41,84
251,81	28,66
252,03	35,95
252,25	-20,79
252,46	14,28
252,68	45,11
252,89	-24,58
253,11	87,46
253,33	13,94
253,54	64,91
253,76	3,45
253,97	21,05
254,19	45,90
254,41	-38,09
254,62	63,30
254,84	15,52
255,05	-24,20
255,27	47,06
255,49	-22,55
255,70	-33,75
255,92	-13,90
256,13	-41,44
256,35	35,35
256,56	-7,37
256,78	13,82
257,00	7,81
257,21	18,94
257,43	48,36
257,64	73,03
257,86	40,91
258,08	28,57
258,29	25,81
258,51	100,40
258,72	58,19
258,94	-23,25
259,15	-10,56
259,37	12,11
259,59	35,27
259,80	66,95
260,02	53,21
260,23	94,89
260,45	58,60
260,66	-20,17
260,88	69,62
261,09	80,28
261,31	20,71
261,53	24,36
261,74	12,72
261,96	85,30
262,17	88,73
262,39	-11,41
262,60	25,94
262,82	77,23
263,03	92,51
263,25	-14,23
263,46	42,52
263,68	84,82
263,90	28,36
264,11	35,56
264,33	-8,66
264,54	15,84
264,76	33,30
264,97	73,83
265,19	39,44
265,40	67,14
265,62	47,20
265,83	78,09
266,05	13,56
266,26	54,04
266,48	80,70
266,70	29,32
266,91	97,14
267,13	20,65
267,34	113,29
267,56	7,79
267,77	53,62
267,99	-13,30
268,20	89,71
268,42	11,02
268,63	79,61
268,85	49,30
269,06	81,23
269,28	69,16
269,49	-5,76
269,71	2,26
269,92	24,34
270,14	17,85
270,35	-33,22
270,57	26,17
270,78	32,80
271,00	28,06
271,21	14,18
271,43	21,13
271,64	-30,86
271,86	51,10
272,07	63,98
272,29	61,65
272,50	47,90
272,72	14,55
272,93	44,26
273,15	84,42
273,36	26,17
273,58	11,64
273,79	-29,86
274,01	-30,03
274,22	20,81
274,44	69,83
274,65	-30,89
274,87	45,87
275,08	78,14
275,30	-38,39
275,51	-10,40
275,73	62,12
275,94	4,73
276,16	11,85
276,37	-22,09
276,59	25,43
276,80	0,96
277,02	52,47
277,23	46,61
277,45	34,98
277,66	76,97
277,88	126,08
278,09	49,21
278,30	1,01
278,52	66,41
278,73	5,33
278,95	81,62
279,16	17,37
279,38	25,18
279,59	-2,75
279,81	57,15
280,02	30,80
280,24	36,91
280,45	49,29
280,67	41,79
280,88	101,73
281,09	86,25
281,31	113,01
281,52	102,60
281,74	87,66
281,95	50,91
282,17	73,83
282,38	29,30
282,60	14,09
282,81	-45,19
283,02	69,14
283,24	138,58
283,45	103,54
283,67	111,43
283,88	80,32
284,10	36,27
284,31	123,58
284,53	41,30
284,74	49,91
284,95	-16,96
285,17	102,38
285,38	87,01
285,60	134,87
285,81	28,61
286,03	-3,92
286,24	45,16
286,45	65,15
286,67	50,75
286,88	60,53
287,10	137,19
287,31	102,51
287,53	28,98
287,74	43,86
287,95	79,07
288,17	-3,23
288,38	-5,24
288,60	14,77
288,81	58,78
289,02	57,36
289,24	37,19
289,45	1,80
289,67	40,67
289,88	79,03
290,10	56,01
290,31	33,18
290,52	36,93
290,74	8,92
290,95	40,89
291,17	4,76
291,38	98,37
291,59	30,45
291,81	23,40
292,02	24,14
292,24	88,28
292,45	-0,81
292,66	13,76
292,88	-23,17
293,09	23,92
293,31	94,03
293,52	47,63
293,73	-11,26
293,95	73,87
294,16	67,75
294,37	29,98
294,59	108,17
294,80	31,12
295,02	2,28
295,23	-42,95
295,44	2,37
295,66	13,17
295,87	36,56
296,09	52,89
296,30	15,26
296,51	13,73
296,73	107,89
296,94	84,65
297,15	88,41
297,37	-29,04
297,58	-11,54
297,79	22,97
298,01	6,95
298,22	55,39
298,44	64,79
298,65	-7,57
298,86	37,09
299,08	-10,99
299,29	20,39
299,50	34,70
299,72	41,45
299,93	6,66
300,14	23,63
300,36	4,31
300,57	-2,63
300,79	38,32
301,00	-6,34
301,21	37,69
301,43	-17,68
301,64	18,44
301,85	50,34
302,07	-45,09
302,28	68,43
302,49	15,83
302,71	43,91
302,92	54,67
303,13	-27,60
303,35	64,31
303,56	86,74
303,77	66,73
303,99	17,80
304,20	30,83
304,41	66,67
304,63	62,58
304,84	19,56
305,05	-74,44
305,27	59,32
305,48	32,89
305,69	5,01
305,91	76,82
306,12	52,61
306,33	86,16
306,55	65,56
306,76	36,87
306,97	-1,78
307,19	-4,43
307,40	23,80
307,61	112,22
307,82	33,33
308,04	83,35
308,25	32,88
308,46	70,50
308,68	33,03
308,89	6,08
309,10	-20,70
309,32	-36,11
309,53	5,78
309,74	82,34
309,96	-31,41
310,17	118,31
310,38	-41,02
310,59	103,66
310,81	22,21
311,02	47,04
311,23	16,05
311,45	30,80
311,66	76,81
311,87	-15,90
312,09	71,84
312,30	26,15
312,51	68,77
312,72	-81,76
312,94	32,16
313,15	12,61
313,36	17,20
313,58	-14,28
313,79	31,31
314,00	35,39
314,21	-58,56
314,43	12,61
314,64	46,64
314,85	33,76
315,06	87,30
315,28	0,61
315,49	-14,49
315,70	57,32
315,92	25,11
316,13	33,15
316,34	72,50
316,55	9,67
316,77	48,14
316,98	32,42
317,19	-22,30
317,40	68,48
317,62	37,60
317,83	80,87
318,04	15,64
318,25	90,90
318,47	79,22
318,68	23,16
318,89	43,60
319,11	60,56
319,32	17,78
319,53	-8,58
319,74	5,87
319,96	28,62
320,17	-38,34
320,38	-33,79
320,59	37,53
320,81	18,37
321,02	-2,51
321,23	9,54
321,44	9,28
321,65	84,61
321,87	8,56
322,08	7,42
322,29	-12,58
322,50	60,23
322,72	4,79
322,93	95,92
323,14	86,52
323,35	26,76
323,57	50,90
323,78	80,00
323,99	7,00
324,20	25,33
324,41	35,14
324,63	80,91
324,84	-10,45
325,05	7,91
325,26	62,17
325,48	23,65
325,69	-0,91
325,90	54,74
326,11	50,63
326,32	40,22
326,54	39,71
326,75	59,84
326,96	48,21
327,17	81,24
327,39	38,45
327,60	25,68
327,81	38,85
328,02	85,90
328,23	104,67
328,45	150,66
328,66	310,87
328,87	773,08
329,08	1566,00
329,29	2621,74
329,51	3681,16
329,72	4448,20
329,93	4842,77
330,14	4520,58
330,35	3915,05
330,56	2976,98
330,78	1934,93
330,99	1099,97
331,20	585,61
331,41	298,35
331,62	146,99
331,84	139,52
332,05	24,62
332,26	110,60
332,47	78,81
332,68	59,29
332,90	35,16
333,11	30,50
333,32	72,76
333,53	67,51
333,74	12,78
333,95	34,26
334,17	65,53
334,38	52,91
334,59	16,02
334,80	7,82
335,01	128,53
335,22	29,82
335,44	105,46
335,65	4,36
335,86	54,95
336,07	33,16
336,28	66,30
336,49	62,90
336,71	62,10
336,92	51,55
337,13	-14,26
337,34	10,40
337,55	82,55
337,76	51,05
337,97	73,96
338,19	14,33
338,40	66,29
338,61	4,27
338,82	24,11
339,03	-12,70
339,24	69,92
339,45	80,79
339,67	60,74
339,88	109,69
340,09	89,25
340,30	-6,78
340,51	60,64
340,72	138,93
340,93	26,86
341,15	76,30
341,36	90,53
341,57	3,58
341,78	88,50
341,99	81,21
342,20	71,51
342,41	39,66
342,62	11,26
342,84	42,00
343,05	-55,96
343,26	51,32
343,47	-23,22
343,68	0,76
343,89	37,10
344,10	87,97
344,31	76,37
344,53	-75,79
344,74	35,67
344,95	104,13
345,16	16,80
345,37	-10,55
345,58	46,08
345,79	27,60
346,00	88,98
346,21	64,58
346,42	14,90
346,64	-4,32
346,85	18,86
347,06	16,35
347,27	14,89
347,48	122,31
347,69	60,88
347,90	-15,14
348,11	-39,15
348,32	-8,94
348,53	48,50
348,75	42,86
348,96	11,01
349,17	24,90
349,38	63,69
349,59	99,26
349,80	12,05
350,01	75,89
350,22	-22,14
350,43	39,44
350,64	-23,92
350,85	32,77
351,06	55,21
351,28	-21,79
351,49	33,56
351,70	25,66
351,91	83,52
352,12	98,33
352,33	39,44
352,54	32,78
352,75	-55,43
352,96	-16,34
353,17	12,60
353,38	24,08
353,59	90,50
353,80	6,32
354,01	67,25
354,22	-21,27
354,44	21,83
354,65	44,26
354,86	90,38
355,07	68,30
355,28	25,56
355,49	26,43
355,70	31,35
355,91	14,94
356,12	91,04
356,33	17,86
356,54	13,13
356,75	144,41
356,96	-4,28
357,17	84,26
357,38	38,10
357,59	24,75
357,80	-21,46
358,01	32,18
358,22	91,26
358,43	69,37
358,64	22,44
358,85	30,97
359,07	-0,25
359,28	-13,43
359,49	40,59
359,70	38,86
359,91	43,48
360,12	20,81
360,33	11,73
360,54	54,87
360,75	30,06
360,96	43,82
361,17	36,46
361,38	78,87
361,59	114,79
361,80	63,81
362,01	22,16
362,22	11,11
362,43	24,64
362,64	54,86
362,85	59,15
363,06	72,14
363,27	-17,61
363,48	31,13
363,69	77,95
363,90	2,28
364,11	46,54
364,32	101,08
364,53	40,51
364,74	148,44
364,95	53,95
365,16	37,59
365,37	-13,05
365,58	62,16
365,79	4,91
366,00	-5,18
366,21	102,43
366,42	99,22
366,63	-11,46
366,84	12,50
367,05	76,80
367,26	91,06
367,47	18,06
367,68	-8,00
367,89	53,66
368,10	51,93
368,31	28,38
368,52	8,11
368,73	41,38
368,94	106,84
369,15	49,87
369,36	42,77
369,57	34,65
369,78	90,16
369,99	23,02
370,20	5,82
370,40	101,06
370,61	63,48
370,82	23,17
371,03	46,32
371,24	103,98
371,45	70,70
371,66	13,54
371,87	51,42
372,08	-17,86
372,29	68,75
372,50	36,67
372,71	-2,10
372,92	35,78
373,13	24,44
373,34	43,00
373,55	64,27
373,76	62,38
373,97	66,77
374,18	65,76
374,39	14,79
374,60	51,05
374,81	3,51
375,01	60,88
375,22	71,46
375,43	63,14
375,64	63,24
375,85	26,12
376,06	6,83
376,27	29,77
376,48	48,84
376,69	-17,72
376,90	69,63
377,11	39,32
377,32	57,66
377,53	53,37
377,74	107,03
377,94	42,00
378,15	36,95
378,36	38,80
378,57	19,53
378,78	49,33
378,99	9,03
379,20	83,17
379,41	-5,57
379,62	66,83
379,83	35,70
380,04	9,00
380,25	-12,23
380,45	108,17
380,66	37,17
380,87	102,73
381,08	72,73
381,29	12,68
381,50	50,68
381,71	-18,33
381,92	2,89
382,13	108,91
382,34	81,07
382,55	-14,70
382,75	65,50
382,96	32,59
383,17	45,69
383,38	-48,06
383,59	141,41
383,80	100,58
384,01	70,30
384,22	-9,88
384,43	30,26
384,63	46,01
384,84	26,54
385,05	67,78
385,26	95,18
385,47	39,61
385,68	128,32
385,89	78,36
386,10	83,30
386,30	57,16
386,51	44,53
386,72	114,93
386,93	67,30
387,14	65,33
387,35	143,70
387,56	-42,89
387,77	9,67
387,97	9,48
388,18	-66,92
388,39	29,40
388,60	-1,67
388,81	-45,18
389,02	35,60
389,23	113,56
389,43	49,66
389,64	27,76
389,85	80,77
390,06	18,08
390,27	-15,85
390,48	67,79
390,69	-4,92
390,89	91,40
391,10	68,01
391,31	65,09
391,52	81,45
391,73	22,72
391,94	84,12
392,14	49,31
392,35	21,39
392,56	65,99
392,77	75,35
392,98	-29,76
393,19	38,33
393,39	98,20
393,60	98,44
393,81	9,95
394,02	10,50
394,23	72,98
394,44	21,63
394,64	18,59
394,85	35,10
395,06	44,26
395,27	81,32
395,48	69,90
395,69	-12,15
395,89	70,72
396,10	75,82
396,31	31,36
396,52	63,24
396,73	45,57
396,93	29,08
397,14	60,86
397,35	29,40
397,56	15,73
397,77	33,71
397,97	55,09
398,18	90,94
398,39	104,38
398,60	85,33
398,81	24,14
399,01	73,08
399,22	58,88
399,43	30,86
399,64	63,10
399,85	51,48
400,05	-25,22
400,26	11,66
400,47	33,60
400,68	-8,96
400,89	53,17
401,09	24,35
401,30	-3,62
401,51	93,12
401,72	68,07
401,93	-1,64
402,13	33,58
402,34	21,80
402,55	-9,12
402,76	31,80
402,96	13,85
403,17	70,52
403,38	114,66
403,59	53,99
403,80	108,21
404,00	65,39
404,21	26,63
404,42	69,41
404,63	13,17
404,83	79,77
405,04	101,40
405,25	110,87
405,46	31,42
405,66	-2,07
405,87	82,83
406,08	50,77
406,29	58,93
406,49	49,49
406,70	9,12
406,91	106,03
407,12	4,30
407,32	42,41
407,53	92,48
407,74	29,62
407,95	86,19
408,15	64,36
408,36	51,44
408,57	32,08
408,78	39,44
408,98	12,35
409,19	89,10
409,40	37,74
409,61	15,98
409,81	71,95
410,02	43,58
410,23	55,47
410,44	70,69
410,64	98,23
410,85	107,90
411,06	92,80
411,26	19,73
411,47	49,83
411,68	-8,61
411,89	124,88
412,09	-9,78
412,30	132,71
412,51	44,26
412,72	72,52
412,92	55,15
413,13	20,39
413,34	16,87
413,54	118,05
413,75	128,36
413,96	-16,78
414,17	102,45
414,37	37,64
414,58	94,66
414,79	163,18
414,99	129,97
415,20	94,37
415,41	43,05
415,61	107,76
415,82	121,59
416,03	50,33
416,24	128,02
416,44	3,83
416,65	104,59
416,86	47,50
417,06	98,03
417,27	165,89
417,48	35,90
417,68	89,18
417,89	88,50
418,10	64,45
418,30	131,98
418,51	47,34
418,72	143,28
418,92	109,42
419,13	47,93
419,34	87,04
419,55	88,16
419,75	46,25
419,96	136,56
420,17	67,94
420,37	106,42
420,58	140,23
420,79	104,72
420,99	68,46
421,20	7,64
421,41	61,28
421,61	109,51
421,82	56,44
422,03	63,17
422,23	65,92
422,44	81,20
422,65	70,36
422,85	134,07
423,06	1,31
423,26	89,34
423,47	117,66
423,68	55,41
423,88	118,80
424,09	75,14
424,30	56,36
424,50	132,04
424,71	86,39
424,92	64,20
425,12	22,41
425,33	37,39
425,54	29,83
425,74	137,05
425,95	47,72
426,15	67,10
426,36	115,10
426,57	83,26
426,77	84,70
426,98	144,03
427,19	82,04
427,39	101,22
427,60	80,56
427,81	72,71
428,01	17,97
428,22	62,88
428,42	63,78
428,63	79,70
428,84	60,08
429,04	10,62
429,25	45,58
429,45	72,70
429,66	9,92
429,87	4,30
430,07	65,27
430,28	118,78
430,49	51,05
430,69	86,18
430,90	54,98
431,10	47,07
431,31	48,66
431,52	61,37
431,72	92,63
431,93	123,92
432,13	89,92
432,34	42,75
432,55	4,88
432,75	-5,83
432,96	32,48
433,16	41,71
433,37	65,68
433,58	62,70
433,78	116,79
433,99	105,07
434,19	59,06
434,40	24,83
434,60	53,66
434,81	12,47
435,02	26,31
435,22	23,66
435,43	26,72
435,63	78,44
435,84	62,62
436,05	66,39
436,25	79,29
436,46	42,12
436,66	71,89
436,87	8,12
437,07	95,33
437,28	94,70
437,48	90,90
437,69	65,41
437,90	114,05
438,10	132,55
438,31	111,34
438,51	97,36
438,72	106,56
438,92	83,94
439,13	105,34
439,34	131,18
439,54	144,93
439,75	38,04
439,95	43,92
440,16	52,79
440,36	45,54
440,57	29,15
440,77	38,21
440,98	44,81
441,18	-25,08
441,39	97,23
441,60	104,65
441,80	27,80
442,01	16,65
442,21	13,46
442,42	22,43
442,62	43,41
442,83	45,15
443,03	106,97
443,24	162,24
443,44	24,18
443,65	31,61
443,85	14,33
444,06	59,45
444,26	13,64
444,47	75,45
444,67	75,10
444,88	33,49
445,09	1,53
445,29	62,72
445,50	-15,56
445,70	18,27
445,91	128,28
446,11	48,91
446,32	59,22
446,52	78,88
446,73	30,34
446,93	32,80
447,14	1,42
447,34	29,80
447,55	23,66
447,75	-16,04
447,96	97,43
448,16	152,57
448,37	129,23
448,57	266,52
448,78	236,20
448,98	265,83
449,19	171,29
449,39	134,77
449,60	176,77
449,80	99,19
450,01	59,70
450,21	98,00
450,42	91,99
450,62	119,87
450,83	57,36
451,03	63,28
451,23	45,06
451,44	72,30
451,64	34,32
451,85	92,92
452,05	7,23
452,26	42,68
452,46	103,89
452,67	111,55
452,87	132,04
453,08	27,98
453,28	52,97
453,49	73,57
453,69	69,85
453,90	141,19
454,10	55,01
454,31	51,23
454,51	21,97
454,71	66,93
454,92	62,38
455,12	85,38
455,33	102,45
455,53	44,81
455,74	41,07
455,94	64,72
456,15	10,90
456,35	43,26
456,55	102,44
456,76	55,67
456,96	62,02
457,17	13,85
457,37	60,14
457,58	55,74
457,78	42,96
457,99	10,42
458,19	114,52
458,39	15,12
458,60	69,28
458,80	68,52
459,01	-21,01
459,21	114,90
459,42	58,92
459,62	102,77
459,82	80,54
460,03	84,97
460,23	69,32
460,44	28,68
460,64	88,01
460,85	4,92
461,05	86,73
461,25	63,71
461,46	39,00
461,66	84,93
461,87	47,13
462,07	130,21
462,27	73,24
462,48	53,73
462,68	55,66
462,89	29,54
463,09	44,66
463,29	-11,48
463,50	63,34
463,70	31,95
463,91	34,51
464,11	47,34
464,31	54,84
464,52	92,64
464,72	112,77
464,93	133,64
465,13	220,39
465,33	400,52
465,54	417,35
465,74	510,64
465,95	596,94
466,15	657,48
466,35	467,85
466,56	271,32
466,76	285,68
466,96	152,58
467,17	178,99
467,37	126,47
467,58	88,55
467,78	127,45
467,98	27,10
468,19	65,32
468,39	24,62
468,59	42,55
468,80	22,55
469,00	98,06
469,21	83,05
469,41	43,10
469,61	89,03
469,82	16,13
470,02	87,65
470,22	73,93
470,43	78,59
470,63	-24,64
470,83	78,80
471,04	49,36
471,24	73,85
471,45	78,89
471,65	24,40
471,85	70,52
472,06	94,33
472,26	57,13
472,46	142,54
472,67	29,05
472,87	46,39
473,07	21,95
473,28	97,57
473,48	48,74
473,68	115,22
473,89	260,53
474,09	171,91
474,29	141,33
474,50	146,64
474,70	135,72
474,90	152,65
475,11	114,75
475,31	77,89
475,51	99,97
475,72	33,22
475,92	127,33
476,12	0,39
476,33	46,68
476,53	53,66
476,73	56,80
476,93	131,77
477,14	46,00
477,34	70,06
477,54	-10,77
477,75	65,10
477,95	73,70
478,15	81,90
478,36	124,60
478,56	48,78
478,76	100,33
478,97	44,82
479,17	42,94
479,37	46,56
479,57	50,94
479,78	73,75
479,98	68,07
480,18	68,38
480,39	62,08
480,59	38,01
480,79	66,68
480,99	66,42
481,20	-19,92
481,40	78,09
481,60	76,88
481,81	22,19
482,01	57,71
482,21	118,74
482,41	123,11
482,62	107,10
482,82	91,42
483,02	72,90
483,23	44,83
483,43	146,52
483,63	49,00
483,83	128,35
484,04	23,39
484,24	35,87
484,44	59,96
484,64	4,12
484,85	67,84
485,05	108,22
485,25	59,14
485,45	125,74
485,66	5,93
485,86	91,78
486,06	81,03
486,26	41,55
486,47	113,57
486,67	65,60
486,87	147,49
487,07	99,00
487,28	-0,51
487,48	118,86
487,68	84,73
487,88	134,78
488,09	61,98
488,29	100,46
488,49	66,94
488,69	63,13
488,90	145,94
489,10	49,37
489,30	19,63
489,50	79,89
489,71	185,83
489,91	61,24
490,11	152,57
490,31	118,24
490,52	40,89
490,72	17,59
490,92	94,87
491,12	77,82
491,32	86,17
491,53	146,30
491,73	106,17
491,93	56,03
492,13	61,17
492,33	78,18
492,54	92,75
492,74	122,03
492,94	143,37
493,14	32,98
493,35	155,91
493,55	125,52
493,75	124,36
493,95	78,04
494,15	37,45
494,36	64,03
494,56	77,64
494,76	131,25
494,96	102,94
495,16	45,56
495,37	132,72
495,57	96,08
495,77	169,09
495,97	261,64
496,17	380,00
496,37	708,77
496,58	1297,60
496,78	2100,31
496,98	2800,31
497,18	3299,46
497,38	3338,89
497,59	2977,84
497,79	2367,87
497,99	1780,80
498,19	1197,12
498,39	886,68
498,59	674,36
498,80	478,46
499,00	341,37
499,20	311,46
499,40	294,61
499,60	169,62
499,80	139,89
500,01	122,43
500,21	130,15
500,41	61,16
500,61	72,20
500,81	120,72
501,01	150,44
501,22	74,37
501,42	102,98
501,62	71,31
501,82	95,09
502,02	79,81
502,22	26,73
502,42	69,50
502,63	99,85
502,83	72,07
503,03	57,55
503,23	66,41
503,43	152,94
503,63	81,84
503,83	144,05
504,04	78,88
504,24	42,81
504,44	83,50
504,64	87,43
504,84	81,97
505,04	158,01
505,24	90,48
505,44	86,76
505,65	98,01
505,85	111,75
506,05	68,17
506,25	85,14
506,45	106,88
506,65	65,77
506,85	27,92
507,05	97,00
507,26	88,24
507,46	101,00
507,66	85,73
507,86	150,77
508,06	189,93
508,26	128,28
508,46	134,32
508,66	129,72
508,86	115,49
509,06	158,71
509,27	123,46
509,47	50,67
509,67	113,40
509,87	25,71
510,07	56,14
510,27	121,43
510,47	138,11
510,67	108,26
510,87	119,14
511,07	74,03
511,28	94,45
511,48	119,79
511,68	105,87
511,88	153,21
512,08	94,12
512,28	180,93
512,48	104,43
512,68	121,12
512,88	165,05
513,08	181,41
513,28	239,22
513,48	252,91
513,68	465,98
513,89	609,41
514,09	696,98
514,29	787,49
514,49	851,37
514,69	642,76
514,89	508,12
515,09	426,50
515,29	369,15
515,49	259,67
515,69	223,09
515,89	177,76
516,09	152,91
516,29	102,78
516,49	123,65
516,69	98,95
516,89	109,12
517,09	160,92
517,29	116,90
517,50	136,43
517,70	135,46
517,90	57,79
518,10	91,94
518,30	85,97
518,50	128,32
518,70	78,42
518,90	146,95
519,10	41,11
519,30	105,08
519,50	97,60
519,70	93,37
519,90	82,94
520,10	140,98
520,30	155,01
520,50	132,07
520,70	92,98
520,90	90,24
521,10	55,18
521,30	68,08
521,50	117,62
521,70	145,32
521,90	130,22
522,10	102,09
522,30	79,96
522,50	97,85
522,70	61,82
522,90	66,63
523,10	80,36
523,30	93,23
523,50	76,19
523,70	152,99
523,90	31,28
524,10	162,24
524,30	88,64
524,50	123,79
524,70	129,97
524,90	38,40
525,10	132,02
525,30	117,32
525,50	130,62
525,70	203,55
525,90	155,43
526,10	65,26
526,30	127,20
526,50	82,26
526,70	64,15
526,90	88,09
527,10	136,57
527,30	101,68
527,50	200,16
527,70	150,35
527,90	94,54
528,10	91,78
528,30	113,07
528,50	130,45
528,70	112,56
528,90	160,58
529,10	122,14
529,30	80,53
529,50	142,55
529,70	93,06
529,90	78,42
530,10	71,69
530,29	155,89
530,49	79,52
530,69	95,02
530,89	154,72
531,09	89,78
531,29	126,85
531,49	140,96
531,69	91,81
531,89	92,70
532,09	170,92
532,29	123,94
532,49	162,37
532,69	68,92
532,89	69,49
533,09	40,42
533,29	170,50
533,49	122,70
533,68	150,48
533,88	131,12
534,08	81,99
534,28	185,58
534,48	127,78
534,68	157,82
534,88	141,23
535,08	136,81
535,28	80,03
535,48	158,55
535,68	117,48
535,88	150,51
536,08	111,99
536,27	127,45
536,47	115,50
536,67	95,05
536,87	152,72
537,07	119,72
537,27	84,79
537,47	172,19
537,67	146,25
537,87	161,96
538,07	103,75
538,27	134,20
538,46	109,49
538,66	119,14
538,86	108,52
539,06	121,43
539,26	150,51
539,46	56,24
539,66	149,32
539,86	101,82
540,06	132,65
540,25	152,46
540,45	125,39
540,65	122,85
540,85	126,56
541,05	180,84
541,25	128,91
541,45	104,56
541,65	167,57
541,85	183,64
542,04	228,85
542,24	137,21
542,44	126,90
542,64	167,59
542,84	215,75
543,04	148,99
543,24	169,40
543,43	174,45
543,63	65,16
543,83	173,03
544,03	173,24
544,23	104,06
544,43	193,90
544,63	110,00
544,82	65,68
545,02	167,16
545,22	152,61
545,42	195,42
545,62	146,43
545,82	161,23
546,02	183,61
546,21	63,06
546,41	167,88
546,61	155,67
546,81	146,75
547,01	131,09
547,21	91,56
547,40	178,75
547,60	127,83
547,80	183,49
548,00	129,12
548,20	89,85
548,40	201,09
548,59	128,32
548,79	118,01
548,99	239,46
549,19	141,80
549,39	184,89
549,59	229,87
549,78	174,34
549,98	164,47
550,18	140,18
550,38	176,32
550,58	209,56
550,77	198,78
550,97	166,15
551,17	194,38
551,37	149,53
551,57	160,41
551,76	185,00
551,96	239,12
552,16	267,57
552,36	203,70
552,56	225,54
552,75	229,11
552,95	261,81
553,15	302,15
553,35	278,37
553,55	227,04
553,74	183,61
553,94	220,46
554,14	236,42
554,34	302,68
554,54	249,85
554,73	215,66
554,93	252,62
555,13	212,51
555,33	256,89
555,53	265,86
555,72	238,80
555,92	287,75
556,12	284,03
556,32	247,88
556,51	269,50
556,71	249,94
556,91	284,83
557,11	376,40
557,30	279,10
557,50	308,08
557,70	402,97
557,90	310,35
558,10	331,65
558,29	346,10
558,49	267,84
558,69	251,72
558,89	363,49
559,08	318,74
559,28	333,35
559,48	382,79
559,68	318,98
559,87	421,11
560,07	357,67
560,27	400,04
560,47	341,24
560,66	388,86
560,86	366,93
561,06	344,52
561,25	402,47
561,45	318,69
561,65	385,96
561,85	410,79
562,04	382,27
562,24	382,94
562,44	457,18
562,64	510,65
562,83	468,65
563,03	460,40
563,23	500,76
563,42	432,34
563,62	522,00
563,82	501,97
564,02	577,32
564,21	497,35
564,41	520,30
564,61	594,01
564,80	586,42
565,00	591,95
565,20	615,97
565,40	661,64
565,59	660,65
565,79	673,32
565,99	723,79
566,18	841,22
566,38	1158,81
566,58	2380,04
566,78	4375,38
566,97	7482,48
567,17	11664,08
567,37	16654,68
567,56	20556,97
567,76	22681,93
567,96	22865,34
568,15	20325,08
568,35	16408,54
568,55	12493,82
568,74	8943,21
568,94	6679,64
569,14	5176,33
569,33	4132,78
569,53	3484,27
569,73	2923,88
569,92	2458,58
570,12	2104,19
570,32	1850,02
570,52	1665,78
570,71	1421,11
570,91	1372,63
571,11	1368,17
571,30	1326,20
571,50	1282,95
571,70	1394,69
571,89	1329,19
572,09	1363,97
572,28	1344,60
572,48	1488,44
572,68	1464,63
572,87	1408,10
573,07	1492,60
573,27	1523,79
573,46	1582,70
573,66	1584,84
573,86	1582,71
574,05	1672,01
574,25	1575,32
574,45	1581,79
574,64	1592,88
574,84	1636,91
575,04	1617,50
575,23	1654,01
575,43	1673,83
575,62	1671,70
575,82	1717,50
576,02	1705,82
576,21	1718,63
576,41	1707,30
576,61	1725,51
576,80	1712,88
577,00	1782,02
577,19	1707,99
577,39	1800,29
577,59	1861,15
577,78	1915,98
577,98	2035,82
578,18	1959,81
578,37	1950,67
578,57	1961,53
578,76	2061,95
578,96	2035,21
579,16	2094,03
579,35	2189,53
579,55	2199,70
579,74	2255,29
579,94	2309,10
580,14	2337,12
580,33	2473,09
580,53	2545,29
580,72	2643,35
580,92	2726,09
581,12	2788,36
581,31	2801,75
581,51	3038,36
581,70	3067,43
581,90	3241,72
582,10	3328,11
582,29	3478,79
582,49	3637,81
582,68	3774,09
582,88	3936,15
583,07	4153,63
583,27	4565,76
583,47	5080,74
583,66	5803,39
583,86	6773,84
584,05	7955,03
584,25	8895,57
584,44	9827,69
584,64	10459,92
584,84	10864,93
585,03	10891,79
585,23	10839,87
585,42	10880,66
585,62	10775,72
585,81	11198,30
586,01	11599,47
586,20	12491,62
586,40	13803,16
586,60	18361,21
586,79	51260,76
586,99	64128,05
587,18	64087,09
587,38	64158,76
587,57	64148,53
587,77	64089,13
587,96	64132,14
588,16	64142,38
588,35	64117,81
588,55	64095,28
588,75	64066,61
588,94	64062,51
589,14	64080,94
589,33	64111,66
589,53	64062,51
589,72	64191,53
589,92	64156,72
590,11	64132,14
590,31	64146,48
590,50	64099,37
590,70	64166,96
590,89	64082,99
591,09	64042,03
591,28	64093,23
591,48	64076,85
591,67	64113,71
591,87	64179,24
592,06	64197,68
592,26	64115,76
592,45	64044,08
592,65	64068,65
592,84	64126,00
593,04	64085,04
593,23	64107,57
593,43	64177,20
593,62	64158,76
593,82	64087,09
594,01	64136,24
594,21	64160,81
594,40	64076,85
594,60	64152,62
594,79	64117,81
594,99	64134,19
595,18	64037,93
595,38	64076,85
595,57	64109,61
595,77	64095,28
595,96	64132,14
596,16	64134,19
596,35	64103,47
596,55	64134,19
596,74	64080,94
596,94	64189,48
597,13	64132,14
597,33	64115,76
597,52	64146,48
597,72	64087,09
597,91	64103,47
598,11	64078,89
598,30	64140,33
598,50	64119,85
598,69	64152,62
598,88	64150,57
599,08	64121,90
599,27	64046,13
599,47	64046,13
599,66	64128,05
599,86	64148,53
600,05	64095,28
600,25	64119,85
600,44	64156,72
600,64	64156,72
600,83	64156,72
601,02	64062,51
601,22	64111,66
601,41	64078,89
601,61	64099,37
601,80	64052,27
602,00	64140,33
602,19	64162,86
602,38	64109,61
602,58	64087,09
602,77	64070,70
602,97	64173,10
603,16	64132,14
603,36	64101,42
603,55	64111,66
603,74	64060,46
603,94	64074,80
604,13	64093,23
604,33	64082,99
604,52	64107,57
604,72	64142,38
604,91	64109,61
605,10	64119,85
605,30	64089,13
605,49	64095,28
605,69	64154,67
605,88	64148,53
606,07	64103,47
606,27	64138,29
606,46	64154,67
606,66	64119,85
606,85	64121,90
607,04	64160,81
607,24	64119,85
607,43	64091,18
607,63	64140,33
607,82	64074,80
608,01	64101,42
608,21	64154,67
608,40	64107,57
608,60	64037,93
608,79	64126,00
608,98	64156,72
609,18	64107,57
609,37	64140,33
609,57	64195,63
609,76	64103,47
609,95	62519,60
610,15	64128,05
610,34	58042,60
610,53	59550,28
610,73	52357,19
610,92	53790,10
611,11	49353,93
611,31	49745,89
611,50	46852,92
611,70	47005,61
611,89	44499,47
612,08	44777,32
612,28	41014,14
612,47	42402,90
612,66	39046,60
612,86	39752,65
613,05	36901,56
613,24	37965,98
613,44	34695,48
613,63	36020,84
613,82	32258,64
614,02	34068,98
614,21	30250,30
614,41	32111,45
614,60	28280,24
614,79	30134,89
614,99	25656,53
615,18	27184,17
615,37	20511,26
615,57	21642,81
615,76	16314,89
615,95	16180,99
616,15	14193,37
616,34	14189,95
616,53	12064,89
616,73	11876,07
616,92	9767,05
617,11	9360,38
617,30	6277,97
617,50	5825,77
617,69	1034,46
617,88	1008,74
618,08	877,60
618,27	899,05
618,46	837,49
618,66	861,65
618,85	840,71
619,04	824,33
619,24	799,56
619,43	728,75
619,62	841,13
619,82	813,86
620,01	775,21
620,20	748,05
620,39	729,47
620,59	833,01
620,78	777,88
620,97	783,93
621,17	719,21
621,36	819,27
621,55	861,46
621,74	747,52
621,94	711,11
622,13	718,82
622,32	707,37
622,52	750,23
622,71	744,40
622,90	673,27
623,09	749,81
623,29	711,40
623,48	728,96
623,67	626,14
623,86	675,68
624,06	741,34
624,25	688,47
624,44	683,52
624,64	622,54
624,83	719,58
625,02	669,33
625,21	578,02
625,41	607,40
625,60	694,79
625,79	589,02
625,98	619,25
626,18	662,98
626,37	665,30
626,56	621,01
626,75	600,99
626,95	585,07
627,14	604,97
627,33	644,34
627,52	655,95
627,72	550,90
627,91	603,70
628,10	529,71
628,29	577,95
628,49	570,35
628,68	635,94
628,87	578,02
629,06	536,09
629,25	558,16
629,45	574,69
629,64	600,71
629,83	548,25
630,02	615,04
630,22	532,67
630,41	528,30
630,60	539,34
630,79	576,77
630,98	560,51
631,18	574,41
631,37	556,99
631,56	514,88
631,75	583,13
631,94	544,48
632,14	574,96
632,33	486,51
632,52	516,86
632,71	547,22
632,90	569,38
633,10	534,46
633,29	574,66
633,48	481,21
633,67	518,45
633,86	602,65
634,06	545,38
634,25	582,26
634,44	574,89
634,63	601,36
634,82	511,23
635,02	547,92
635,21	444,30
635,40	495,67
635,59	449,61
635,78	494,05
635,97	454,64
636,17	439,70
636,36	471,07
636,55	558,22
636,74	509,70
636,93	452,03
637,12	469,32
637,32	452,56
637,51	448,68
637,70	407,45
637,89	499,61
638,08	493,36
638,27	464,18
638,47	432,44
638,66	466,49
638,85	441,60
639,04	347,26
639,23	435,13
639,42	461,26
639,62	401,24
639,81	458,66
640,00	419,16
640,19	468,62
640,38	398,43
640,57	429,99
640,76	404,74
640,95	502,04
641,15	416,40
641,34	421,11
641,53	420,38
641,72	409,26
641,91	422,96
642,10	343,63
642,29	444,70
642,49	392,60
642,68	454,39
642,87	432,02
643,06	406,47
643,25	435,39
643,44	402,66
643,63	428,81
643,82	397,57
644,01	358,66
644,21	397,25
644,40	417,82
644,59	368,24
644,78	449,07
644,97	359,26
645,16	376,17
645,35	374,57
645,54	397,50
645,73	367,79
645,92	389,94
646,12	384,61
646,31	420,39
646,50	376,24
646,69	354,60
646,88	404,22
647,07	410,13
647,26	409,51
647,45	354,64
647,64	378,24
647,83	368,37
648,02	297,44
648,22	369,94
648,41	367,39
648,60	339,58
648,79	384,11
648,98	401,90
649,17	355,61
649,36	365,80
649,55	294,40
649,74	310,51
649,93	322,25
650,12	271,43
650,31	427,63
650,50	338,30
650,69	359,31
650,88	332,97
651,08	329,68
651,27	300,68
651,46	327,84
651,65	263,93
651,84	350,78
652,03	318,06
652,22	341,88
652,41	322,27
652,60	256,76
652,79	385,48
652,98	317,62
653,17	348,48
653,36	250,88
653,55	320,39
653,74	300,21
653,93	340,17
654,12	364,26
654,31	339,45
654,50	325,33
654,69	310,13
654,88	359,31
655,07	256,34
655,26	260,50
655,45	277,80
655,64	258,02
655,83	253,08
656,02	322,78
656,21	344,37
656,40	325,86
656,59	347,86
656,78	209,86
656,97	296,89
657,17	309,54
657,36	298,18
657,55	273,59
657,74	302,14
657,93	190,95
658,12	228,58
658,31	271,36
658,50	254,45
658,69	294,26
658,87	292,21
659,06	201,00
659,25	256,27
659,44	259,10
659,63	294,48
659,82	169,03
660,01	259,08
660,20	266,71
660,39	266,11
660,58	297,06
660,77	297,91
660,96	241,05
661,15	272,61
661,34	198,95
661,53	232,65
661,72	261,62
661,91	213,65
662,10	265,11
662,29	168,47
662,48	233,81
662,67	225,94
662,86	199,14
663,05	180,07
663,24	207,77
663,43	179,06
663,62	176,77
663,81	263,69
664,00	261,50
664,19	252,77
664,38	194,83
664,57	247,92
664,76	225,87
664,94	159,63
665,13	206,49
665,32	220,29
665,51	203,56
665,70	198,69
665,89	220,53
666,08	170,02
666,27	290,84
666,46	216,81
666,65	230,51
666,84	204,07
667,03	250,61
667,22	311,12
667,41	221,41
667,60	170,84
667,78	176,92
667,97	154,48
668,16	167,18
668,35	236,26
668,54	170,36
668,73	149,09
668,92	208,77
669,11	152,79
669,30	160,80
669,49	151,66
669,68	193,18
669,86	199,82
670,05	190,86
670,24	100,35
670,43	171,05
670,62	102,79
670,81	176,89
671,00	184,06
671,19	192,18
671,38	198,28
671,57	163,15
671,75	156,80
671,94	224,17
672,13	223,97
672,32	163,02
672,51	247,18
672,70	138,14
672,89	164,91
673,08	233,84
673,26	136,23
673,45	109,54
673,64	194,33
673,83	218,41
674,02	63,45
674,21	144,21
674,40	135,39
674,59	108,02
674,77	162,73
674,96	146,75
675,15	144,88
675,34	146,39
675,53	197,98
675,72	142,09
675,91	164,25
676,09	111,07
676,28	139,37
676,47	88,08
676,66	148,63
676,85	103,96
677,04	53,73
677,22	168,67
677,41	125,09
677,60	97,79
677,79	130,29
677,98	109,55
678,17	173,23
678,36	147,64
678,54	201,26
678,73	123,02
678,92	101,59
679,11	140,02
679,30	135,26
679,48	56,58
679,67	155,63
679,86	60,88
680,05	87,02
680,24	108,11
680,43	119,53
680,61	109,57
680,80	101,08
680,99	155,61
681,18	131,57
681,37	86,54
681,55	106,70
681,74	113,68
681,93	87,78
682,12	84,00
682,31	99,28
682,49	109,08
682,68	48,65
682,87	95,53
683,06	118,74
683,25	108,02
683,43	64,34
683,62	107,70
683,81	122,79
684,00	71,77
684,19	112,96
684,37	149,99
684,56	123,89
684,75	91,91
684,94	28,79
685,12	79,21
685,31	105,01
685,50	107,03
685,69	128,23
685,88	105,20
686,06	84,34
686,25	138,84
686,44	27,36
686,63	98,16
686,81	105,67
687,00	128,84
687,19	95,21
687,38	39,75
687,56	121,57
687,75	153,18
687,94	96,47
688,13	149,32
688,31	195,69
688,50	93,52
688,69	107,61
688,88	204,46
689,06	14,30
689,25	42,43
689,44	127,67
689,63	20,23
689,81	54,71
690,00	104,93
690,19	70,43
690,38	100,65
690,56	24,94
690,75	88,59
690,94	82,59
691,13	141,53
691,31	21,18
691,50	59,54
691,69	124,29
691,87	132,95
692,06	122,78
692,25	-7,01
692,44	56,27
692,62	108,30
692,81	71,06
693,00	21,11
693,18	101,12
693,37	46,15
693,56	60,90
693,75	68,15
693,93	77,61
694,12	73,87
694,31	31,84
694,49	52,58
694,68	75,78
694,87	195,20
695,05	262,42
695,24	393,72
695,43	483,65
695,62	597,67
695,80	638,99
695,99	642,40
696,18	704,20
696,36	698,53
696,55	723,39
696,74	590,25
696,92	529,05
697,11	462,38
697,30	477,48
697,48	490,88
697,67	460,55
697,86	429,36
698,04	285,63
698,23	218,16
698,42	211,85
698,60	45,39
698,79	159,27
698,98	137,75
699,16	120,13
699,35	88,53
699,54	33,08
699,72	94,81
699,91	129,11
700,10	42,84
700,28	96,67
700,47	-0,11
700,66	75,23
700,84	32,83
701,03	93,50
701,21	80,73
701,40	32,77
701,59	114,44
701,77	109,40
701,96	54,82
702,15	0,59
702,33	60,02
702,52	197,92
702,71	70,89
702,89	149,74
703,08	97,24
703,26	111,25
703,45	91,56
703,64	100,45
703,82	42,50
704,01	51,07
704,20	25,23
704,38	128,57
704,57	80,36
704,75	133,28
704,94	93,30
705,13	164,12
705,31	199,32
705,50	300,88
705,68	347,96
705,87	385,08
706,06	531,87
706,24	520,30
706,43	459,85
706,61	483,69
706,80	448,39
706,99	444,56
707,17	428,35
707,36	321,44
707,54	353,72
707,73	303,13
707,92	236,24
708,10	221,97
708,29	232,73
708,47	160,00
708,66	92,63
708,84	44,67
709,03	107,73
709,22	59,74
709,40	38,25
709,59	38,29
709,77	73,68
709,96	82,16
710,14	39,67
710,33	43,82
710,52	68,46
710,70	8,59
710,89	27,59
711,07	31,59
711,26	41,87
711,44	87,44
711,63	107,42
711,81	40,78
712,00	81,61
712,19	49,34
712,37	41,09
712,56	104,95
712,74	57,68
712,93	16,07
713,11	56,62
713,30	133,66
713,48	58,96
713,67	105,60
713,85	95,87
714,04	128,13
714,22	102,52
714,41	102,17
714,59	54,07
714,78	90,44
714,97	79,60
715,15	74,63
715,34	90,14
715,52	125,67
715,71	126,94
715,89	114,26
716,08	76,41
716,26	66,08
716,45	89,37
716,63	129,08
716,82	64,62
717,00	101,75
717,19	63,15
717,37	85,39
717,56	34,64
717,74	70,68
717,93	75,78
718,11	64,06
718,30	57,07
718,48	86,96
718,67	89,95
718,85	7,09
719,04	94,42
719,22	74,45
719,41	92,70
719,59	76,80
719,78	94,72
719,96	34,29
720,15	79,52
720,33	47,00
720,52	-5,08
720,70	72,73
720,88	59,21
721,07	83,95
721,25	31,32
721,44	104,36
721,62	30,75
721,81	56,69
721,99	81,55
722,18	53,71
722,36	40,90
722,55	90,50
722,73	46,77
722,92	36,49
723,10	109,45
723,28	56,44
723,47	101,15
723,65	85,63
723,84	-11,90
724,02	89,45
724,21	140,74
724,39	84,40
724,58	68,51
724,76	37,18
724,94	11,34
725,13	54,39
725,31	83,57
725,50	141,45
725,68	103,89
725,87	117,52
726,05	132,04
726,23	134,93
726,42	202,12
726,60	202,64
726,79	179,16
726,97	250,14
727,16	116,80
727,34	205,16
727,52	195,88
727,71	144,87
727,89	175,91
728,08	210,88
728,26	34,64
728,44	100,61
728,63	107,64
728,81	129,79
729,00	81,22
729,18	59,48
729,36	50,36
729,55	67,88
729,73	5,99
729,92	77,89
730,10	62,12
730,28	82,57
730,47	27,48
730,65	91,82
730,84	31,73
731,02	9,26
731,20	55,07
731,39	37,03
731,57	69,64
731,75	19,21
731,94	15,26
732,12	58,37
732,31	84,29
732,49	-12,61
732,67	42,02
732,86	3,70
733,04	29,75
733,22	81,60
733,41	55,98
733,59	26,00
733,78	-36,84
733,96	46,60
734,14	38,41
734,33	21,83
734,51	-1,84
734,69	21,49
734,88	23,29
735,06	89,79
735,24	37,89
735,43	43,87
735,61	114,34
735,79	87,13
735,98	131,71
736,16	58,05
736,34	108,57
736,53	67,82
736,71	229,82
736,89	233,92
737,08	381,82
737,26	484,48
737,44	580,38
737,63	783,89
737,81	790,49
737,99	782,86
738,18	759,00
738,36	758,55
738,54	705,14
738,73	609,51
738,91	481,55
739,09	324,91
739,28	325,58
739,46	289,64
739,64	264,05
739,82	187,91
740,01	201,99
740,19	185,27
740,37	196,14
740,56	99,82
740,74	41,13
740,92	27,93
741,11	53,50
741,29	57,87
741,47	11,33
741,65	51,19
741,84	35,99
742,02	43,60
742,20	13,98
742,39	54,68
742,57	98,15
742,75	67,11
742,93	104,01
743,12	41,01
743,30	100,02
743,48	112,02
743,67	80,79
743,85	56,18
744,03	19,57
744,21	3,64
744,40	43,09
744,58	44,66
744,76	33,57
744,94	10,54
745,13	49,41
745,31	93,71
745,49	91,44
745,67	22,49
745,86	31,66
746,04	30,27
746,22	32,70
746,40	91,77
746,59	43,13
746,77	91,26
746,95	141,57
747,13	82,93
747,32	19,63
747,50	125,36
747,68	105,73
747,86	88,86
748,05	37,96
748,23	80,85
748,41	14,08
748,59	143,52
748,77	98,50
748,96	206,74
749,14	273,91
749,32	398,89
749,50	494,89
749,69	614,84
749,87	726,74
750,05	824,20
750,23	896,94
750,41	871,77
750,60	951,47
750,78	931,07
750,96	896,19
751,14	806,89
751,32	747,41
751,51	732,34
751,69	628,09
751,87	439,58
752,05	448,20
752,23	382,29
752,42	272,99
752,60	245,20
752,78	307,26
752,96	200,63
753,14	228,59
753,33	170,56
753,51	114,40
753,69	101,58
753,87	182,96
754,05	4,79
754,23	112,17
754,42	70,66
754,60	-30,88
754,78	47,97
754,96	12,46
755,14	60,29
755,32	30,13
755,51	70,77
755,69	69,06
755,87	53,30
756,05	-8,86
756,23	65,64
756,41	123,92
756,60	22,03
756,78	101,77
756,96	87,25
757,14	101,92
757,32	-18,70
757,50	68,81
757,68	107,86
757,87	71,98
758,05	86,28
758,23	2,37
758,41	53,45
758,59	14,38
758,77	36,58
758,95	104,35
759,14	48,29
759,32	79,34
759,50	35,23
759,68	74,87
759,86	74,95
760,04	67,65
760,22	66,36
760,40	54,86
760,59	7,10
760,77	39,84
760,95	66,27
761,13	73,92
761,31	44,77
761,49	114,73
761,67	210,86
761,85	409,00
762,03	746,83
762,22	1275,98
762,40	1780,36
762,58	2393,42
762,76	2810,59
762,94	3050,61
763,12	3010,54
763,30	2785,94
763,48	2325,82
763,66	1958,20
763,84	1553,34
764,02	1252,82
764,21	1085,25
764,39	780,97
764,57	855,06
764,75	885,42
764,93	1028,71
765,11	1507,37
765,29	1975,07
765,47	2249,17
765,65	2457,91
765,83	2358,19
766,01	2111,03
766,19	1685,89
766,37	1253,74
766,56	961,61
766,74	698,23
766,92	557,23
767,10	455,19
767,28	324,63
767,46	278,53
767,64	264,08
767,82	215,31
768,00	230,59
768,18	272,19
768,36	378,61
768,54	655,02
768,72	923,41
768,90	1095,85
769,08	1255,03
769,26	1277,69
769,44	1106,10
769,62	876,92
769,80	625,72
769,98	479,01
770,16	322,25
770,34	278,80
770,52	230,94
770,71	272,90
770,89	386,90
771,07	593,06
771,25	707,38
771,43	892,46
771,61	986,38
771,79	1160,89
771,97	1157,05
772,15	1025,55
772,33	939,78
772,51	693,52
772,69	567,08
772,87	471,18
773,05	352,19
773,23	298,03
773,41	306,74
773,59	280,62
773,77	261,31
773,95	225,84
774,13	212,88
774,31	210,58
774,49	187,32
774,67	129,32
774,85	173,16
775,03	108,20
775,21	106,30
775,39	96,54
775,57	7,67
775,75	76,58
775,93	56,37
776,10	126,21
776,28	67,77
776,46	63,29
776,64	7,02
776,82	46,63
777,00	50,04
777,18	100,48
777,36	-4,85
777,54	53,56
777,72	24,84
777,90	21,79
778,08	87,85
778,26	75,95
778,44	27,27
778,62	119,39
778,80	17,84
778,98	45,80
779,16	74,16
779,34	107,66
779,52	31,86
779,70	126,91
779,88	25,65
780,05	58,21
780,23	0,47
780,41	49,85
780,59	27,16
780,77	33,49
780,95	7,66
781,13	-3,15
781,31	-35,03
781,49	103,37
781,67	72,76
781,85	31,30
782,03	-9,61
782,21	35,72
782,39	27,15
782,56	72,05
782,74	93,14
782,92	65,61
783,10	42,58
783,28	-20,09
783,46	86,73
783,64	70,71
783,82	33,11
784,00	13,70
784,18	84,07
784,35	27,81
784,53	56,38
784,71	25,00
784,89	70,12
785,07	106,47
785,25	81,92
785,43	87,06
785,61	137,48
785,79	28,25
785,96	-1,95
786,14	81,52
786,32	-30,95
786,50	52,03
786,68	65,23
786,86	51,81
787,04	-4,56
787,22	86,08
787,39	65,56
787,57	26,99
787,75	48,45
787,93	28,53
788,11	58,36
788,29	-15,41
788,47	-9,86
788,65	41,90
788,82	-7,17
789,00	21,42
789,18	-19,20
789,36	8,73
789,54	55,87
789,72	47,40
789,89	48,79
790,07	42,18
790,25	104,44
790,43	-1,13
790,61	65,59
790,79	85,15
790,96	-22,28
791,14	106,64
791,32	50,28
791,50	116,37
791,68	31,50
791,86	91,94
792,03	85,26
792,21	55,30
792,39	36,75
792,57	48,23
792,75	81,43
792,93	3,74
793,10	115,62
793,28	143,66
793,46	151,61
793,64	351,17
793,82	402,34
793,99	429,76
794,17	559,38
794,35	556,56
794,53	543,25
794,71	439,37
794,88	335,79
795,06	279,78
795,24	229,97
795,42	258,03
795,60	194,45
795,77	183,56
795,95	209,14
796,13	71,29
796,31	205,57
796,49	172,94
796,66	142,18
796,84	148,38
797,02	159,12
797,20	103,60
797,37	132,06
797,55	97,61
797,73	86,70
797,91	49,37
798,08	82,10
798,26	80,71
798,44	121,03
798,62	75,16
798,80	105,12
798,97	108,14
799,15	103,85
799,33	145,29
799,51	213,66
799,68	316,54
799,86	338,07
800,04	476,16
800,22	542,28
800,39	600,83
800,57	668,41
800,75	631,89
800,93	678,57
801,10	622,71
801,28	476,67
801,46	429,25
801,63	360,57
801,81	332,53
801,99	317,05
802,17	299,07
802,34	251,31
802,52	279,53
802,70	203,16
802,88	224,43
803,05	218,52
803,23	133,89
803,41	255,90
803,58	134,58
803,76	142,71
803,94	146,46
804,12	79,83
804,29	114,41
804,47	177,41
804,65	3,96
804,82	104,42
805,00	22,58
805,18	83,81
805,35	88,73
805,53	105,55
805,71	75,19
805,89	130,84
806,06	48,21
806,24	46,24
806,42	51,54
806,59	45,59
806,77	45,91
806,95	49,88
807,12	32,57
807,30	114,44
807,48	43,14
807,65	139,44
807,83	25,11
808,01	17,20
808,18	93,13
808,36	67,10
808,54	86,27
808,71	224,67
808,89	236,98
809,07	356,11
809,24	519,72
809,42	583,41
809,60	592,21
809,77	742,61
809,95	890,34
810,13	1137,55
810,30	1405,65
810,48	1683,16
810,66	1796,11
810,83	1919,98
811,01	1923,74
811,18	1758,03
811,36	1587,79
811,54	1364,42
811,71	1117,56
811,89	1055,83
812,07	918,42
812,24	809,02
812,42	747,37
812,59	742,04
812,77	636,15
812,95	616,14
813,12	671,12
813,30	587,86
813,48	588,64
813,65	585,49
813,83	436,69
814,00	401,68
814,18	426,41
814,36	277,64
814,53	233,03
814,71	287,19
814,88	215,70
815,06	186,53
815,24	222,77
815,41	218,20
815,59	256,65
815,76	256,17
815,94	318,61
816,12	353,50
816,29	417,44
816,47	1009,96
816,64	2636,68
816,82	6188,54
817,00	11762,36
817,17	18286,35
817,35	24173,80
817,52	27154,42
817,70	29022,63
817,87	30238,09
818,05	32842,01
818,23	36977,38
818,40	42399,28
818,58	45325,30
818,75	46448,74
818,93	44587,78
819,10	40129,86
819,28	32287,66
819,46	24281,59
819,63	18636,44
819,81	15368,25
819,98	12668,21
820,16	10654,11
820,33	9099,23
820,51	7839,58
820,68	6610,03
820,86	5732,03
821,03	4907,49
821,21	4173,34
821,39	3624,09
821,56	3217,19
821,74	2672,86
821,91	2219,77
822,09	1772,90
822,26	1326,16
822,44	1025,07
822,61	718,33
822,79	542,57
822,96	429,59
823,14	325,33
823,31	272,49
823,49	196,34
823,66	165,57
823,84	140,92
824,01	115,20
824,19	104,67
824,36	116,28
824,54	131,03
824,71	101,38
824,89	106,42
825,06	195,69
825,24	290,48
825,41	315,40
825,59	270,56
825,76	278,11
825,94	262,68
826,11	326,23
826,29	244,05
826,46	188,19
826,64	236,77
826,81	186,58
826,99	194,12
827,16	168,59
827,34	233,14
827,51	154,63
827,69	100,77
827,86	215,43
828,04	229,32
828,21	241,07
828,39	148,84
828,56	156,48
828,74	99,49
828,91	112,90
829,09	96,66
829,26	72,43
829,43	98,52
829,61	92,30
829,78	89,97
829,96	73,56
830,13	85,61
830,31	47,30
830,48	91,52
830,66	37,74
830,83	71,55
831,01	25,22
831,18	37,15
831,35	72,40
831,53	9,56
831,70	92,19
831,88	-32,14
832,05	95,77
832,23	-6,90
832,40	67,65
832,57	63,95
832,75	71,86
832,92	49,26
833,10	63,21
833,27	45,48
833,45	35,52
833,62	62,87
833,79	71,01
833,97	27,47
834,14	84,28
834,32	77,38
834,49	127,56
834,66	83,41
834,84	25,84
835,01	0,18
835,19	39,42
835,36	41,87
835,53	94,11
835,71	65,53
835,88	28,85
836,06	9,20
836,23	79,61
836,40	96,32
836,58	101,46
836,75	40,70
836,93	32,14
837,10	-6,40
837,27	85,30
837,45	33,06
837,62	41,17
837,79	76,36
837,97	86,44
838,14	41,25
838,32	94,46
838,49	54,12
838,66	27,81
838,84	21,53
839,01	7,47
839,18	145,92
839,36	170,14
839,53	218,76
839,70	224,88
839,88	306,23
840,05	315,25
840,23	359,04
840,40	311,52
840,57	285,53
840,75	377,99
840,92	317,43
841,09	339,49
841,27	430,45
841,44	491,37
841,61	474,41
841,79	508,72
841,96	562,47
842,13	543,48
842,31	469,90
842,48	401,67
842,65	409,86
842,83	369,37
843,00	331,72
843,17	363,33
843,35	388,86
843,52	349,75
843,69	225,60
843,86	257,59
844,04	293,28
844,21	286,06
844,38	202,04
844,56	233,96
844,73	194,68
844,90	178,77
845,08	176,55
845,25	181,90
845,42	148,94
845,60	56,63
845,77	101,91
845,94	59,81
846,11	28,23
846,29	74,04
846,46	71,82
846,63	50,12
846,81	47,23
846,98	23,81
847,15	66,78
847,32	22,13
847,50	54,29
847,67	-5,85
847,84	2,73
848,01	101,37
848,19	77,95
848,36	28,95
848,53	4,54
848,71	40,32
848,88	21,93
849,05	29,16
849,22	79,75
849,40	-36,32
849,57	51,49
849,74	-10,05
849,91	-32,84
850,09	49,23
850,26	79,69
850,43	57,56
850,60	54,20
850,78	67,38
850,95	109,01
851,12	212,63
851,29	52,71
851,47	47,14
851,64	148,72
851,81	114,95
851,98	113,77
852,15	194,55
852,33	72,38
852,50	62,14
852,67	134,12
852,84	111,53
853,02	67,05
853,19	90,06
853,36	69,04
853,53	89,60
853,70	139,80
853,88	83,15
854,05	41,26
854,22	32,34
854,39	59,43
854,56	51,57
854,74	36,82
854,91	34,38
855,08	50,05
855,25	34,37
855,42	104,20
855,60	66,86
855,77	31,07
855,94	72,22
856,11	55,71
856,28	2,29
856,46	-18,66
856,63	-12,83
856,80	28,33
856,97	72,59
857,14	27,70
857,31	42,18
857,49	-10,73
857,66	51,59
857,83	45,64
858,00	-12,73
858,17	71,37
858,34	43,46
858,52	69,31
858,69	82,28
858,86	81,84
859,03	63,23
859,20	49,67
859,37	111,55
859,55	103,67
859,72	62,39
859,89	17,55
860,06	-12,33
860,23	101,17
860,40	-10,87
860,57	7,69
860,75	41,41
860,92	51,43
861,09	23,08
861,26	-1,40
861,43	22,36
861,60	47,88
861,77	64,24
861,95	-33,09
862,12	-6,83
862,29	73,08
862,46	7,09
862,63	-4,65
862,80	24,90
862,97	36,69
863,14	64,49
863,31	4,03
863,49	10,01
863,66	5,50
863,83	33,73
864,00	10,73
864,17	23,40
864,34	85,54
864,51	-8,62
864,68	19,99
864,85	63,80
865,02	-27,32
865,20	50,11
865,37	45,96
865,54	59,93
865,71	29,80
865,88	38,74
866,05	59,85
866,22	43,17
866,39	5,52
866,56	7,14
866,73	9,84
866,90	29,14
867,07	96,74
867,25	73,27
867,42	93,27
867,59	-11,27
867,76	28,56
867,93	50,58
868,10	18,76
868,27	48,98
868,44	44,63
868,61	29,67
868,78	15,86
868,95	79,44
869,12	30,59
869,29	85,49
869,46	-4,66
869,63	98,36
869,80	53,45
869,97	-25,02
870,14	85,56
870,32	-11,49
870,49	3,89
870,66	41,08
870,83	68,77
871,00	24,24
871,17	44,50
871,34	-15,20
871,51	22,51
871,68	42,78
871,85	-61,59
872,02	20,52
872,19	20,42
872,36	55,15
872,53	61,47
872,70	10,20
872,87	53,68
873,04	3,36
873,21	-13,86
873,38	41,41
873,55	80,22
873,72	0,22
873,89	54,20
874,06	54,57
874,23	27,01
874,40	18,87
874,57	6,58
874,74	3,67
874,91	76,58
875,08	40,33
875,25	4,57
875,42	86,85
875,59	4,71
875,76	-17,14
875,93	60,41
876,10	22,22
876,27	36,13
876,44	-0,15
876,61	20,03
876,78	25,46
876,95	26,05
877,12	13,81
877,29	31,19
877,46	-21,50
877,62	34,09
877,79	-20,71
877,96	51,81
878,13	39,11
878,30	-23,98
878,47	39,76
878,64	-45,44
878,81	-20,84
878,98	-6,41
879,15	25,08
879,32	54,86
879,49	14,05
879,66	1,37
879,83	-8,69
880,00	-4,16
880,17	61,39
880,34	25,46
880,51	97,93
880,67	127,11
880,84	23,50
881,01	-14,42
881,18	11,36
881,35	104,25
881,52	0,66
881,69	60,56
881,86	6,51
882,03	-6,61
882,20	51,18
882,37	-38,37
882,54	41,47
882,70	56,91
882,87	49,19
883,04	60,35
883,21	5,70
883,38	54,25
883,55	40,75
883,72	-19,02
883,89	12,27
884,06	23,85
884,23	37,15
884,39	48,15
884,56	12,97
884,73	98,45
884,90	28,64
885,07	25,19
885,24	70,18
885,41	35,49
885,58	61,55
885,74	86,88
885,91	7,82
886,08	18,69
886,25	61,60
886,42	24,05
886,59	105,16
886,76	-4,88
886,93	1,26
887,09	52,66
887,26	-15,69
887,43	5,28
887,60	43,82
887,77	16,53
887,94	-4,14
888,10	16,68
888,27	5,54
888,44	41,95
888,61	59,77
888,78	32,99
888,95	-16,30
889,12	-25,77
889,28	9,10
889,45	51,08
889,62	66,36
889,79	-15,76
889,96	-54,19
890,13	29,56
890,29	12,22
890,46	13,42
890,63	33,60
890,80	-44,74
890,97	12,08
891,13	-0,23
891,30	38,89
891,47	-6,67
891,64	23,14
891,81	50,28
891,98	44,90
892,14	60,76
892,31	-13,59
892,48	-50,92
892,65	-28,04
892,82	54,11
892,98	93,10
893,15	-14,51
893,32	45,85
>>>>>End Processed Spectral Data<<<<<
