SpectraSuite Datei
++++++++++++++++++++++++++++++++++++
Datum: Mon Feb 18 15:42:35 CET 2019
Benutzer: Admin
Dark-Spektrum vorhanden: Ja
Referenz-Spektrum vorhanden: Ja
Zahl der probierten Teilspektren: 1
Spektrometer: USB4F05832
Integrationszeit (usec): 3800 (USB4F05832)
Spektren Durchschnitt berechnet: 1052 (USB4F05832)
Boxcar Glättung: 0 (USB4F05832)
Dunkelstromkorrektur: Nein (USB4F05832)
Puls/Lampe aktiviert: Nein (USB4F05832)
Correct for Detector Non-linearity: Nein (USB4F05832)
Streulichtkorrektur: Nein (USB4F05832)
Anzahl Pixel in verarbeitetem Spektrum: 3648
>>>>>Begin Processed Spectral Data<<<<<
177,54	27,88
177,75	27,88
177,97	27,88
178,19	-20,53
178,41	28,87
178,63	57,92
178,85	12,55
179,07	24,62
179,29	-41,58
179,51	-37,83
179,73	83,23
179,95	-5,18
180,17	-0,78
180,39	-8,87
180,61	38,88
180,83	-21,97
181,05	29,82
181,27	-50,24
181,49	24,43
181,71	-37,53
181,92	-18,06
182,14	4,63
182,36	-30,66
182,58	2,50
182,80	25,56
183,02	48,12
183,24	135,26
183,46	5,32
183,68	-8,18
183,90	6,50
184,12	2,79
184,34	47,76
184,56	33,48
184,78	82,12
185,00	14,39
185,21	1,43
185,43	15,15
185,65	1,28
185,87	6,55
186,09	-4,73
186,31	38,83
186,53	-3,45
186,75	67,82
186,97	-9,82
187,19	40,30
187,41	29,88
187,63	28,79
187,84	-17,79
188,06	29,55
188,28	-12,93
188,50	-4,05
188,72	-38,52
188,94	-0,50
189,16	58,30
189,38	65,42
189,60	-23,32
189,82	53,67
190,03	56,42
190,25	79,48
190,47	32,28
190,69	36,87
190,91	3,95
191,13	4,95
191,35	56,85
191,57	16,45
191,79	-9,03
192,01	-24,76
192,22	57,58
192,44	-9,20
192,66	-43,95
192,88	36,35
193,10	37,69
193,32	49,21
193,54	-10,05
193,76	-24,10
193,98	106,92
194,19	-45,36
194,41	-7,29
194,63	38,65
194,85	34,24
195,07	51,02
195,29	61,14
195,51	-16,19
195,73	16,84
195,94	-36,75
196,16	-20,94
196,38	41,32
196,60	77,83
196,82	10,14
197,04	16,18
197,26	-36,44
197,48	39,91
197,69	24,46
197,91	34,57
198,13	70,56
198,35	19,49
198,57	12,38
198,79	106,38
199,01	54,59
199,22	42,78
199,44	66,24
199,66	-30,84
199,88	27,41
200,10	35,31
200,32	53,69
200,54	-21,71
200,75	20,99
200,97	26,47
201,19	33,29
201,41	87,37
201,63	3,09
201,85	-24,84
202,06	57,94
202,28	21,78
202,50	16,56
202,72	39,46
202,94	-3,03
203,16	66,86
203,38	16,60
203,59	23,18
203,81	38,65
204,03	4,80
204,25	-20,95
204,47	46,94
204,69	11,31
204,90	49,06
205,12	39,83
205,34	34,69
205,56	3,36
205,78	68,74
206,00	56,97
206,21	13,01
206,43	36,37
206,65	70,99
206,87	8,13
207,09	1,86
207,30	-10,80
207,52	94,02
207,74	30,93
207,96	35,62
208,18	6,26
208,40	113,63
208,61	18,21
208,83	12,36
209,05	36,57
209,27	83,21
209,49	53,02
209,70	46,75
209,92	-7,00
210,14	-10,90
210,36	30,73
210,58	-17,49
210,79	71,74
211,01	-0,71
211,23	31,02
211,45	57,55
211,67	54,68
211,88	25,42
212,10	3,48
212,32	33,16
212,54	65,43
212,76	-3,90
212,97	68,69
213,19	24,65
213,41	-21,91
213,63	25,07
213,85	34,25
214,06	1,83
214,28	-8,79
214,50	17,46
214,72	43,23
214,94	36,64
215,15	48,45
215,37	91,22
215,59	-17,23
215,81	58,45
216,02	48,81
216,24	54,68
216,46	27,80
216,68	-15,39
216,90	13,76
217,11	-2,36
217,33	32,69
217,55	51,84
217,77	64,08
217,98	45,78
218,20	27,85
218,42	-39,22
218,64	-40,88
218,85	7,65
219,07	10,69
219,29	42,46
219,51	-3,02
219,73	-15,32
219,94	-11,38
220,16	17,96
220,38	50,05
220,60	4,03
220,81	16,82
221,03	-23,53
221,25	-38,05
221,47	-76,07
221,68	15,92
221,90	60,16
222,12	-6,43
222,34	8,90
222,55	-17,67
222,77	54,25
222,99	28,11
223,21	-4,36
223,42	26,08
223,64	30,19
223,86	30,56
224,08	71,14
224,29	19,75
224,51	38,80
224,73	34,23
224,94	-16,45
225,16	10,77
225,38	11,71
225,60	41,96
225,81	30,83
226,03	73,09
226,25	50,04
226,47	32,65
226,68	39,50
226,90	66,88
227,12	52,77
227,33	73,00
227,55	63,05
227,77	3,98
227,99	72,59
228,20	22,26
228,42	42,91
228,64	71,09
228,86	15,27
229,07	14,73
229,29	54,95
229,51	-22,64
229,72	30,58
229,94	-0,56
230,16	38,68
230,38	24,83
230,59	62,04
230,81	-9,05
231,03	66,94
231,24	39,59
231,46	60,83
231,68	65,92
231,89	16,98
232,11	-1,36
232,33	-34,62
232,55	21,79
232,76	103,53
232,98	-23,92
233,20	34,54
233,41	31,41
233,63	0,90
233,85	-29,08
234,06	73,00
234,28	-11,61
234,50	57,75
234,71	38,32
234,93	-6,43
235,15	32,62
235,37	-17,10
235,58	56,49
235,80	-24,54
236,02	57,15
236,23	62,24
236,45	42,42
236,67	2,06
236,88	-23,30
237,10	45,86
237,32	20,64
237,53	16,12
237,75	47,27
237,97	13,60
238,18	14,78
238,40	80,66
238,62	45,76
238,83	73,29
239,05	28,53
239,27	-13,68
239,48	67,70
239,70	-38,44
239,92	41,36
240,13	-14,87
240,35	10,51
240,57	60,79
240,78	67,80
241,00	37,94
241,22	13,70
241,43	4,91
241,65	8,23
241,87	56,63
242,08	5,14
242,30	-6,67
242,52	-30,36
242,73	33,25
242,95	43,96
243,16	16,07
243,38	12,90
243,60	2,92
243,81	9,08
244,03	-25,05
244,25	72,09
244,46	48,50
244,68	-6,01
244,90	56,13
245,11	38,86
245,33	81,50
245,55	38,66
245,76	19,51
245,98	4,67
246,19	24,13
246,41	83,28
246,63	26,85
246,84	-11,23
247,06	102,17
247,28	1,54
247,49	37,28
247,71	101,44
247,92	-2,42
248,14	10,59
248,36	-11,30
248,57	13,04
248,79	39,75
249,01	-13,25
249,22	41,34
249,44	19,54
249,65	70,71
249,87	51,62
250,09	13,13
250,30	29,67
250,52	35,87
250,73	77,92
250,95	37,21
251,17	81,27
251,38	48,99
251,60	-38,90
251,81	29,55
252,03	35,81
252,25	-21,70
252,46	15,19
252,68	45,91
252,89	-26,13
253,11	86,51
253,33	14,60
253,54	65,14
253,76	1,48
253,97	19,60
254,19	45,53
254,41	-38,79
254,62	62,47
254,84	16,78
255,05	-26,62
255,27	46,82
255,49	-20,37
255,70	-32,05
255,92	-13,76
256,13	-44,24
256,35	34,27
256,56	-5,61
256,78	13,58
257,00	10,15
257,21	16,99
257,43	48,68
257,64	72,61
257,86	41,59
258,08	27,79
258,29	26,62
258,51	99,51
258,72	56,27
258,94	-20,97
259,15	-9,42
259,37	13,45
259,59	36,38
259,80	65,08
260,02	54,56
260,23	91,33
260,45	56,63
260,66	-17,76
260,88	69,76
261,09	80,62
261,31	21,92
261,53	23,69
261,74	12,64
261,96	83,02
262,17	86,83
262,39	-13,49
262,60	24,85
262,82	75,46
263,03	92,05
263,25	-12,80
263,46	43,40
263,68	81,34
263,90	27,92
264,11	34,19
264,33	-7,25
264,54	14,06
264,76	35,18
264,97	73,57
265,19	39,35
265,40	65,10
265,62	46,41
265,83	79,87
266,05	13,95
266,26	55,20
266,48	82,75
266,70	27,61
266,91	96,80
267,13	19,60
267,34	114,31
267,56	6,96
267,77	56,44
267,99	-9,56
268,20	89,17
268,42	7,94
268,63	79,40
268,85	48,87
269,06	80,05
269,28	71,58
269,49	-5,82
269,71	3,55
269,92	23,02
270,14	16,62
270,35	-32,28
270,57	25,28
270,78	32,28
271,00	31,65
271,21	12,88
271,43	20,05
271,64	-31,13
271,86	51,20
272,07	63,28
272,29	60,44
272,50	48,78
272,72	14,64
272,93	43,33
273,15	85,28
273,36	26,75
273,58	7,51
273,79	-29,20
274,01	-30,48
274,22	19,31
274,44	69,19
274,65	-30,18
274,87	44,39
275,08	77,46
275,30	-41,43
275,51	-12,26
275,73	60,19
275,94	7,90
276,16	9,78
276,37	-23,97
276,59	26,67
276,80	1,23
277,02	52,27
277,23	45,21
277,45	36,23
277,66	77,85
277,88	126,36
278,09	46,90
278,30	-1,39
278,52	63,56
278,73	6,49
278,95	81,62
279,16	18,59
279,38	23,41
279,59	-2,87
279,81	56,01
280,02	28,64
280,24	37,77
280,45	50,48
280,67	42,06
280,88	101,10
281,09	85,33
281,31	114,25
281,52	100,90
281,74	88,42
281,95	52,51
282,17	76,06
282,38	28,94
282,60	12,13
282,81	-44,04
283,02	68,14
283,24	138,65
283,45	103,17
283,67	111,30
283,88	84,36
284,10	38,80
284,31	124,06
284,53	38,03
284,74	50,29
284,95	-16,71
285,17	101,17
285,38	90,77
285,60	132,14
285,81	30,15
286,03	-4,48
286,24	42,48
286,45	62,83
286,67	52,42
286,88	60,05
287,10	135,47
287,31	102,75
287,53	27,29
287,74	44,45
287,95	78,17
288,17	-5,56
288,38	-8,40
288,60	14,73
288,81	58,05
289,02	57,06
289,24	36,18
289,45	-0,33
289,67	41,27
289,88	80,40
290,10	54,30
290,31	29,43
290,52	35,51
290,74	9,08
290,95	42,28
291,17	2,49
291,38	98,83
291,59	28,74
291,81	24,86
292,02	24,26
292,24	88,94
292,45	-6,13
292,66	12,64
292,88	-21,05
293,09	22,23
293,31	92,20
293,52	48,05
293,73	-10,54
293,95	71,05
294,16	67,02
294,37	28,27
294,59	103,36
294,80	31,88
295,02	2,32
295,23	-41,27
295,44	1,82
295,66	12,23
295,87	34,72
296,09	52,75
296,30	15,86
296,51	15,34
296,73	108,41
296,94	84,80
297,15	88,71
297,37	-28,86
297,58	-12,41
297,79	22,77
298,01	8,96
298,22	53,32
298,44	64,58
298,65	-8,84
298,86	38,30
299,08	-10,15
299,29	23,28
299,50	35,67
299,72	37,33
299,93	7,37
300,14	25,97
300,36	4,14
300,57	-1,99
300,79	37,91
301,00	-7,13
301,21	36,66
301,43	-16,53
301,64	17,92
301,85	49,56
302,07	-43,98
302,28	67,08
302,49	16,19
302,71	45,68
302,92	54,43
303,13	-29,69
303,35	63,13
303,56	84,55
303,77	64,94
303,99	18,22
304,20	30,14
304,41	67,69
304,63	62,15
304,84	19,78
305,05	-73,47
305,27	55,01
305,48	32,13
305,69	4,33
305,91	76,13
306,12	52,26
306,33	88,41
306,55	65,98
306,76	35,64
306,97	-0,95
307,19	-4,40
307,40	26,70
307,61	111,32
307,82	35,05
308,04	81,62
308,25	29,68
308,46	72,90
308,68	31,91
308,89	5,68
309,10	-21,56
309,32	-35,86
309,53	5,98
309,74	83,70
309,96	-31,65
310,17	116,04
310,38	-39,42
310,59	103,66
310,81	24,34
311,02	45,28
311,23	16,64
311,45	31,72
311,66	77,83
311,87	-17,69
312,09	71,83
312,30	25,74
312,51	64,88
312,72	-82,21
312,94	30,29
313,15	10,19
313,36	17,76
313,58	-16,49
313,79	29,83
314,00	33,72
314,21	-58,50
314,43	13,94
314,64	45,07
314,85	35,01
315,06	88,60
315,28	0,86
315,49	-12,89
315,70	56,96
315,92	25,24
316,13	34,45
316,34	73,09
316,55	12,12
316,77	47,05
316,98	31,41
317,19	-21,87
317,40	68,73
317,62	39,26
317,83	79,14
318,04	14,82
318,25	90,74
318,47	77,53
318,68	23,15
318,89	44,66
319,11	59,54
319,32	18,25
319,53	-8,35
319,74	3,12
319,96	30,30
320,17	-38,43
320,38	-33,24
320,59	36,51
320,81	18,67
321,02	-6,82
321,23	6,15
321,44	8,08
321,65	84,19
321,87	9,31
322,08	2,65
322,29	-14,98
322,50	58,80
322,72	6,40
322,93	96,22
323,14	87,18
323,35	27,07
323,57	49,20
323,78	80,52
323,99	8,40
324,20	23,50
324,41	34,27
324,63	80,61
324,84	-8,09
325,05	6,86
325,26	62,42
325,48	20,10
325,69	-3,22
325,90	53,41
326,11	47,57
326,32	38,63
326,54	37,96
326,75	61,01
326,96	47,54
327,17	79,47
327,39	37,13
327,60	28,01
327,81	38,39
328,02	90,87
328,23	101,93
328,45	148,59
328,66	311,54
328,87	769,49
329,08	1560,71
329,29	2615,61
329,51	3669,03
329,72	4434,75
329,93	4830,30
330,14	4500,50
330,35	3895,03
330,56	2957,31
330,78	1925,53
330,99	1092,04
331,20	581,82
331,41	294,93
331,62	143,44
331,84	135,40
332,05	21,73
332,26	109,70
332,47	77,57
332,68	60,13
332,90	36,65
333,11	29,33
333,32	72,16
333,53	66,91
333,74	9,83
333,95	36,44
334,17	66,68
334,38	53,63
334,59	16,04
334,80	7,71
335,01	125,69
335,22	27,33
335,44	104,65
335,65	2,44
335,86	56,32
336,07	30,92
336,28	64,63
336,49	62,94
336,71	62,69
336,92	46,85
337,13	-15,15
337,34	10,70
337,55	82,34
337,76	50,03
337,97	72,19
338,19	16,78
338,40	66,42
338,61	3,98
338,82	25,37
339,03	-12,62
339,24	71,00
339,45	79,30
339,67	63,89
339,88	109,72
340,09	86,23
340,30	-6,35
340,51	56,85
340,72	138,86
340,93	28,76
341,15	76,68
341,36	88,85
341,57	1,70
341,78	86,67
341,99	80,04
342,20	68,09
342,41	39,38
342,62	13,37
342,84	42,79
343,05	-56,54
343,26	48,96
343,47	-25,05
343,68	0,64
343,89	34,86
344,10	84,55
344,31	78,20
344,53	-77,34
344,74	32,60
344,95	102,30
345,16	16,43
345,37	-8,34
345,58	46,06
345,79	26,71
346,00	87,47
346,21	61,95
346,42	17,03
346,64	-5,94
346,85	18,69
347,06	17,21
347,27	14,74
347,48	121,44
347,69	59,30
347,90	-14,85
348,11	-39,98
348,32	-9,49
348,53	49,66
348,75	40,97
348,96	10,43
349,17	25,17
349,38	63,50
349,59	97,63
349,80	10,71
350,01	76,80
350,22	-26,79
350,43	38,86
350,64	-24,65
350,85	31,63
351,06	57,33
351,28	-21,82
351,49	34,78
351,70	25,73
351,91	83,57
352,12	96,23
352,33	40,54
352,54	31,67
352,75	-55,69
352,96	-18,26
353,17	13,17
353,38	21,08
353,59	88,74
353,80	4,60
354,01	69,95
354,22	-20,81
354,44	27,26
354,65	43,56
354,86	90,69
355,07	68,46
355,28	26,78
355,49	27,20
355,70	30,03
355,91	15,42
356,12	90,97
356,33	19,58
356,54	10,95
356,75	144,21
356,96	-3,45
357,17	84,10
357,38	36,95
357,59	22,25
357,80	-23,10
358,01	32,92
358,22	89,35
358,43	68,09
358,64	24,81
358,85	28,96
359,07	0,14
359,28	-13,92
359,49	39,22
359,70	42,09
359,91	44,36
360,12	18,83
360,33	10,37
360,54	55,53
360,75	29,47
360,96	41,62
361,17	34,69
361,38	77,82
361,59	115,57
361,80	64,01
362,01	19,09
362,22	13,42
362,43	22,73
362,64	54,37
362,85	60,85
363,06	69,34
363,27	-19,05
363,48	29,64
363,69	75,94
363,90	4,06
364,11	44,08
364,32	100,32
364,53	40,39
364,74	147,75
364,95	53,91
365,16	36,43
365,37	-11,94
365,58	63,42
365,79	4,61
366,00	-3,09
366,21	102,75
366,42	97,21
366,63	-13,68
366,84	12,61
367,05	74,70
367,26	91,53
367,47	17,37
367,68	-8,51
367,89	50,85
368,10	52,33
368,31	26,80
368,52	7,65
368,73	41,17
368,94	104,26
369,15	50,42
369,36	40,41
369,57	34,89
369,78	89,20
369,99	24,08
370,20	3,65
370,40	99,10
370,61	63,36
370,82	21,88
371,03	46,00
371,24	103,02
371,45	70,35
371,66	12,73
371,87	50,76
372,08	-19,12
372,29	66,22
372,50	35,68
372,71	-4,15
372,92	37,87
373,13	26,19
373,34	41,71
373,55	63,59
373,76	60,49
373,97	66,45
374,18	65,36
374,39	14,73
374,60	49,74
374,81	4,57
375,01	59,93
375,22	72,79
375,43	63,03
375,64	63,08
375,85	28,28
376,06	5,18
376,27	29,40
376,48	51,35
376,69	-17,05
376,90	70,63
377,11	37,18
377,32	56,30
377,53	51,97
377,74	107,42
377,94	45,05
378,15	36,54
378,36	38,54
378,57	20,69
378,78	49,70
378,99	6,46
379,20	84,62
379,41	-9,35
379,62	68,26
379,83	36,11
380,04	7,12
380,25	-13,44
380,45	105,72
380,66	35,20
380,87	103,51
381,08	74,14
381,29	13,09
381,50	47,78
381,71	-17,36
381,92	4,81
382,13	110,97
382,34	80,17
382,55	-14,63
382,75	63,78
382,96	31,75
383,17	45,10
383,38	-50,04
383,59	141,28
383,80	102,38
384,01	70,60
384,22	-9,09
384,43	29,05
384,63	44,95
384,84	27,49
385,05	68,73
385,26	94,24
385,47	39,30
385,68	129,91
385,89	77,80
386,10	82,76
386,30	57,32
386,51	45,66
386,72	116,74
386,93	65,50
387,14	65,82
387,35	142,01
387,56	-43,21
387,77	9,91
387,97	10,92
388,18	-67,88
388,39	28,69
388,60	-3,07
388,81	-45,06
389,02	31,98
389,23	113,63
389,43	50,42
389,64	26,69
389,85	80,59
390,06	17,99
390,27	-16,43
390,48	67,41
390,69	-6,49
390,89	91,69
391,10	64,71
391,31	62,62
391,52	80,77
391,73	20,37
391,94	84,26
392,14	50,53
392,35	21,12
392,56	64,35
392,77	75,89
392,98	-30,99
393,19	38,87
393,39	99,92
393,60	96,59
393,81	7,71
394,02	8,62
394,23	74,38
394,44	22,28
394,64	20,32
394,85	37,14
395,06	42,13
395,27	83,04
395,48	68,78
395,69	-13,23
395,89	69,35
396,10	75,15
396,31	33,05
396,52	62,15
396,73	47,72
396,93	27,29
397,14	61,76
397,35	28,20
397,56	17,47
397,77	37,10
397,97	54,56
398,18	91,05
398,39	105,85
398,60	85,20
398,81	23,78
399,01	74,38
399,22	58,92
399,43	29,66
399,64	60,73
399,85	50,77
400,05	-26,34
400,26	11,22
400,47	34,53
400,68	-9,56
400,89	50,62
401,09	24,00
401,30	-1,58
401,51	94,29
401,72	66,82
401,93	-2,60
402,13	31,81
402,34	23,60
402,55	-8,66
402,76	30,09
402,96	13,00
403,17	69,47
403,38	113,90
403,59	55,04
403,80	106,46
404,00	61,71
404,21	27,49
404,42	67,14
404,63	13,55
404,83	78,44
405,04	101,91
405,25	110,87
405,46	31,93
405,66	-2,69
405,87	81,34
406,08	50,28
406,29	60,21
406,49	49,01
406,70	9,51
406,91	105,92
407,12	5,43
407,32	42,86
407,53	94,09
407,74	30,67
407,95	89,00
408,15	62,37
408,36	49,55
408,57	28,98
408,78	39,18
408,98	12,21
409,19	86,04
409,40	36,05
409,61	15,09
409,81	71,67
410,02	42,40
410,23	58,44
410,44	72,57
410,64	95,77
410,85	108,42
411,06	95,10
411,26	20,37
411,47	52,61
411,68	-9,07
411,89	125,71
412,09	-11,02
412,30	133,30
412,51	45,08
412,72	71,56
412,92	54,68
413,13	21,92
413,34	16,19
413,54	117,82
413,75	128,47
413,96	-14,44
414,17	101,34
414,37	36,06
414,58	94,78
414,79	161,68
414,99	132,76
415,20	98,66
415,41	40,39
415,61	109,30
415,82	117,90
416,03	50,08
416,24	127,01
416,44	4,77
416,65	105,12
416,86	46,91
417,06	96,93
417,27	164,02
417,48	36,06
417,68	90,01
417,89	87,22
418,10	64,20
418,30	132,74
418,51	47,50
418,72	142,78
418,92	107,58
419,13	45,87
419,34	85,87
419,55	89,52
419,75	48,18
419,96	137,46
420,17	70,67
420,37	106,30
420,58	137,99
420,79	103,79
420,99	69,75
421,20	4,36
421,41	60,35
421,61	108,15
421,82	55,64
422,03	63,66
422,23	65,34
422,44	79,91
422,65	68,94
422,85	132,17
423,06	0,38
423,26	89,56
423,47	119,24
423,68	53,79
423,88	119,00
424,09	72,72
424,30	53,61
424,50	129,71
424,71	84,61
424,92	64,93
425,12	23,13
425,33	39,87
425,54	32,52
425,74	137,26
425,95	45,90
426,15	67,00
426,36	115,80
426,57	83,82
426,77	80,91
426,98	143,17
427,19	78,57
427,39	102,56
427,60	79,63
427,81	71,32
428,01	16,81
428,22	61,69
428,42	62,99
428,63	79,95
428,84	56,86
429,04	9,77
429,25	47,23
429,45	73,19
429,66	12,14
429,87	2,25
430,07	67,11
430,28	117,17
430,49	51,13
430,69	87,85
430,90	53,04
431,10	47,05
431,31	47,72
431,52	63,97
431,72	93,82
431,93	125,18
432,13	88,98
432,34	42,53
432,55	4,35
432,75	-5,01
432,96	28,25
433,16	41,38
433,37	64,56
433,58	63,59
433,78	116,49
433,99	105,76
434,19	59,24
434,40	24,31
434,60	53,34
434,81	11,18
435,02	26,49
435,22	22,48
435,43	26,58
435,63	76,15
435,84	64,76
436,05	65,74
436,25	78,36
436,46	43,38
436,66	68,51
436,87	5,40
437,07	96,20
437,28	94,58
437,48	92,88
437,69	62,53
437,90	115,05
438,10	133,38
438,31	113,60
438,51	96,86
438,72	103,30
438,92	83,92
439,13	103,66
439,34	131,84
439,54	144,19
439,75	36,43
439,95	42,22
440,16	51,05
440,36	44,68
440,57	30,78
440,77	37,08
440,98	42,22
441,18	-24,38
441,39	97,63
441,60	106,37
441,80	26,94
442,01	15,81
442,21	13,13
442,42	21,92
442,62	43,93
442,83	46,77
443,03	102,96
443,24	161,00
443,44	21,79
443,65	32,75
443,85	14,05
444,06	59,06
444,26	13,88
444,47	73,70
444,67	75,07
444,88	31,76
445,09	2,27
445,29	62,83
445,50	-11,38
445,70	16,20
445,91	126,79
446,11	48,98
446,32	57,56
446,52	78,14
446,73	30,40
446,93	33,95
447,14	1,57
447,34	28,58
447,55	21,43
447,75	-15,22
447,96	93,72
448,16	151,71
448,37	132,38
448,57	266,68
448,78	238,01
448,98	266,10
449,19	171,03
449,39	133,82
449,60	175,45
449,80	98,29
450,01	59,29
450,21	100,58
450,42	92,49
450,62	119,80
450,83	59,27
451,03	61,04
451,23	44,09
451,44	73,73
451,64	36,27
451,85	94,22
452,05	6,26
452,26	44,71
452,46	104,77
452,67	112,68
452,87	133,84
453,08	26,24
453,28	53,78
453,49	75,26
453,69	67,49
453,90	139,13
454,10	54,28
454,31	53,50
454,51	22,20
454,71	67,23
454,92	63,51
455,12	83,80
455,33	98,76
455,53	43,86
455,74	41,68
455,94	63,88
456,15	11,13
456,35	45,15
456,55	100,58
456,76	58,19
456,96	61,87
457,17	15,63
457,37	59,07
457,58	57,92
457,78	43,73
457,99	9,69
458,19	111,92
458,39	14,51
458,60	69,64
458,80	67,26
459,01	-19,08
459,21	113,53
459,42	57,07
459,62	102,04
459,82	80,77
460,03	85,91
460,23	68,91
460,44	29,28
460,64	88,69
460,85	4,80
461,05	84,20
461,25	63,01
461,46	38,39
461,66	85,92
461,87	45,10
462,07	128,38
462,27	76,79
462,48	50,79
462,68	55,46
462,89	30,49
463,09	42,76
463,29	-13,68
463,50	63,14
463,70	30,31
463,91	32,23
464,11	48,27
464,31	54,96
464,52	91,05
464,72	114,24
464,93	134,12
465,13	222,99
465,33	401,42
465,54	420,79
465,74	515,29
465,95	596,93
466,15	659,37
466,35	468,10
466,56	272,63
466,76	285,29
466,96	152,80
467,17	178,19
467,37	125,45
467,58	86,31
467,78	128,47
467,98	28,19
468,19	65,79
468,39	24,45
468,59	45,40
468,80	20,74
469,00	98,28
469,21	84,29
469,41	42,70
469,61	89,42
469,82	14,61
470,02	89,01
470,22	72,79
470,43	77,39
470,63	-23,53
470,83	77,71
471,04	48,38
471,24	72,42
471,45	79,12
471,65	24,23
471,85	72,26
472,06	94,05
472,26	57,53
472,46	142,07
472,67	27,48
472,87	44,13
473,07	22,10
473,28	98,00
473,48	49,16
473,68	116,21
473,89	260,18
474,09	171,59
474,29	142,43
474,50	148,58
474,70	134,40
474,90	149,68
475,11	113,31
475,31	76,56
475,51	101,93
475,72	30,35
475,92	127,91
476,12	0,10
476,33	44,64
476,53	54,39
476,73	57,50
476,93	129,30
477,14	46,94
477,34	70,96
477,54	-9,33
477,75	65,89
477,95	71,43
478,15	80,32
478,36	123,04
478,56	49,90
478,76	99,20
478,97	44,09
479,17	41,58
479,37	43,59
479,57	50,48
479,78	72,75
479,98	68,07
480,18	68,26
480,39	58,97
480,59	35,93
480,79	65,26
480,99	66,12
481,20	-20,62
481,40	79,29
481,60	75,63
481,81	21,77
482,01	56,37
482,21	116,93
482,41	122,50
482,62	106,85
482,82	90,39
483,02	69,69
483,23	44,09
483,43	145,18
483,63	48,04
483,83	125,40
484,04	25,26
484,24	33,89
484,44	57,15
484,64	0,28
484,85	70,16
485,05	109,57
485,25	57,51
485,45	124,62
485,66	5,45
485,86	92,33
486,06	78,45
486,26	39,82
486,47	111,00
486,67	66,44
486,87	146,27
487,07	97,56
487,28	0,93
487,48	119,63
487,68	89,27
487,88	132,56
488,09	61,60
488,29	102,81
488,49	65,47
488,69	61,74
488,90	145,63
489,10	48,86
489,30	20,15
489,50	77,27
489,71	183,75
489,91	59,76
490,11	149,23
490,31	119,90
490,52	38,97
490,72	15,89
490,92	94,08
491,12	78,79
491,32	83,24
491,53	144,47
491,73	104,91
491,93	53,92
492,13	59,93
492,33	77,48
492,54	92,94
492,74	121,18
492,94	142,39
493,14	32,74
493,35	152,80
493,55	123,86
493,75	121,84
493,95	80,11
494,15	39,92
494,36	62,55
494,56	75,85
494,76	132,86
494,96	101,33
495,16	44,31
495,37	134,46
495,57	94,59
495,77	169,59
495,97	261,05
496,17	384,56
496,37	714,67
496,58	1307,95
496,78	2112,15
496,98	2817,30
497,18	3307,04
497,38	3349,57
497,59	2987,99
497,79	2379,21
497,99	1783,89
498,19	1198,83
498,39	887,49
498,59	673,34
498,80	478,71
499,00	339,04
499,20	312,70
499,40	293,98
499,60	167,51
499,80	136,91
500,01	122,35
500,21	131,31
500,41	61,61
500,61	75,06
500,81	116,50
501,01	151,11
501,22	72,40
501,42	102,11
501,62	70,15
501,82	92,91
502,02	79,79
502,22	24,56
502,42	68,45
502,63	103,55
502,83	72,68
503,03	55,81
503,23	66,32
503,43	153,51
503,63	80,11
503,83	145,32
504,04	76,19
504,24	40,99
504,44	84,49
504,64	85,99
504,84	82,28
505,04	158,87
505,24	87,90
505,44	86,65
505,65	98,27
505,85	110,13
506,05	66,51
506,25	81,69
506,45	102,70
506,65	62,37
506,85	25,84
507,05	97,01
507,26	88,05
507,46	103,97
507,66	88,45
507,86	148,29
508,06	191,44
508,26	129,24
508,46	134,44
508,66	129,94
508,86	115,13
509,06	159,26
509,27	120,18
509,47	52,29
509,67	112,65
509,87	23,01
510,07	56,04
510,27	120,17
510,47	137,92
510,67	108,56
510,87	119,97
511,07	72,22
511,28	94,12
511,48	119,91
511,68	105,04
511,88	152,47
512,08	92,72
512,28	179,52
512,48	102,37
512,68	120,30
512,88	162,98
513,08	181,29
513,28	239,91
513,48	253,20
513,68	469,28
513,89	609,89
514,09	696,56
514,29	788,56
514,49	852,30
514,69	641,08
514,89	507,55
515,09	426,01
515,29	368,49
515,49	258,83
515,69	224,00
515,89	177,72
516,09	151,15
516,29	99,67
516,49	120,73
516,69	99,39
516,89	110,39
517,09	162,87
517,29	117,89
517,50	135,79
517,70	136,92
517,90	55,08
518,10	93,61
518,30	88,08
518,50	127,64
518,70	78,63
518,90	144,65
519,10	40,89
519,30	104,83
519,50	95,05
519,70	94,95
519,90	84,66
520,10	138,19
520,30	155,08
520,50	131,33
520,70	93,39
520,90	87,27
521,10	54,64
521,30	68,59
521,50	114,42
521,70	145,43
521,90	128,49
522,10	100,62
522,30	77,56
522,50	98,04
522,70	61,54
522,90	66,77
523,10	80,93
523,30	94,31
523,50	74,21
523,70	152,36
523,90	31,73
524,10	159,64
524,30	85,94
524,50	124,66
524,70	130,28
524,90	35,30
525,10	133,54
525,30	117,99
525,50	130,82
525,70	200,95
525,90	155,78
526,10	65,34
526,30	128,28
526,50	81,38
526,70	61,34
526,90	87,60
527,10	135,32
527,30	101,68
527,50	202,23
527,70	148,86
527,90	95,06
528,10	93,23
528,30	112,25
528,50	129,05
528,70	111,19
528,90	159,43
529,10	119,13
529,30	78,46
529,50	146,04
529,70	89,82
529,90	78,08
530,10	69,98
530,29	156,88
530,49	78,05
530,69	97,76
530,89	153,43
531,09	90,41
531,29	123,76
531,49	142,79
531,69	92,32
531,89	95,08
532,09	168,41
532,29	122,19
532,49	159,87
532,69	70,58
532,89	68,40
533,09	40,18
533,29	170,53
533,49	122,63
533,68	151,28
533,88	132,37
534,08	79,08
534,28	183,44
534,48	127,20
534,68	160,03
534,88	141,13
535,08	138,77
535,28	79,65
535,48	155,48
535,68	115,42
535,88	146,74
536,08	110,58
536,27	125,58
536,47	116,08
536,67	92,22
536,87	151,10
537,07	116,81
537,27	84,21
537,47	173,63
537,67	143,43
537,87	162,84
538,07	101,97
538,27	132,83
538,46	113,25
538,66	118,41
538,86	112,82
539,06	122,91
539,26	149,43
539,46	55,61
539,66	147,78
539,86	102,88
540,06	131,07
540,25	151,06
540,45	128,37
540,65	122,33
540,85	125,03
541,05	178,13
541,25	127,45
541,45	106,60
541,65	165,78
541,85	185,37
542,04	225,49
542,24	136,11
542,44	127,92
542,64	165,92
542,84	214,73
543,04	144,94
543,24	168,94
543,43	172,51
543,63	63,30
543,83	170,75
544,03	172,87
544,23	102,39
544,43	195,35
544,63	112,65
544,82	65,70
545,02	165,59
545,22	152,54
545,42	197,09
545,62	144,45
545,82	158,76
546,02	183,76
546,21	61,57
546,41	164,85
546,61	155,89
546,81	146,20
547,01	130,27
547,21	91,31
547,40	174,40
547,60	129,04
547,80	182,38
548,00	129,50
548,20	87,87
548,40	202,03
548,59	127,70
548,79	116,73
548,99	239,54
549,19	140,57
549,39	183,49
549,59	227,07
549,78	173,84
549,98	161,43
550,18	137,22
550,38	177,64
550,58	210,54
550,77	198,47
550,97	166,24
551,17	196,41
551,37	150,10
551,57	162,94
551,76	184,84
551,96	240,84
552,16	266,13
552,36	202,67
552,56	225,12
552,75	230,83
552,95	261,08
553,15	300,88
553,35	277,42
553,55	226,00
553,74	180,76
553,94	219,06
554,14	236,58
554,34	301,64
554,54	248,66
554,73	216,21
554,93	254,09
555,13	211,35
555,33	256,77
555,53	267,10
555,72	237,35
555,92	291,18
556,12	283,85
556,32	244,76
556,51	266,37
556,71	250,01
556,91	282,44
557,11	375,72
557,30	278,66
557,50	309,58
557,70	403,62
557,90	308,65
558,10	331,21
558,29	348,11
558,49	266,64
558,69	253,69
558,89	364,46
559,08	318,20
559,28	331,25
559,48	381,89
559,68	321,75
559,87	420,07
560,07	358,35
560,27	402,13
560,47	342,83
560,66	387,41
560,86	364,98
561,06	340,76
561,25	401,78
561,45	320,80
561,65	385,92
561,85	410,65
562,04	382,22
562,24	381,99
562,44	456,02
562,64	511,47
562,83	469,04
563,03	459,60
563,23	498,80
563,42	434,59
563,62	523,49
563,82	503,29
564,02	575,61
564,21	494,45
564,41	520,50
564,61	596,49
564,80	588,34
565,00	593,40
565,20	615,62
565,40	659,05
565,59	660,39
565,79	671,61
565,99	721,68
566,18	837,94
566,38	1162,73
566,58	2389,25
566,78	4393,13
566,97	7498,57
567,17	11687,79
567,37	16709,14
567,56	20608,19
567,76	22724,25
567,96	22890,71
568,15	20353,34
568,35	16407,31
568,55	12485,43
568,74	8942,80
568,94	6682,85
569,14	5178,39
569,33	4136,34
569,53	3487,21
569,73	2930,29
569,92	2459,89
570,12	2102,70
570,32	1855,28
570,52	1666,32
570,71	1418,38
570,91	1368,44
571,11	1367,51
571,30	1326,10
571,50	1285,73
571,70	1393,99
571,89	1328,88
572,09	1358,29
572,28	1344,74
572,48	1492,15
572,68	1466,42
572,87	1410,65
573,07	1490,54
573,27	1522,29
573,46	1582,12
573,66	1583,29
573,86	1585,34
574,05	1674,90
574,25	1575,66
574,45	1578,81
574,64	1591,40
574,84	1635,98
575,04	1616,47
575,23	1655,85
575,43	1671,72
575,62	1669,83
575,82	1718,88
576,02	1705,40
576,21	1721,42
576,41	1710,81
576,61	1726,58
576,80	1717,85
577,00	1785,46
577,19	1709,23
577,39	1800,73
577,59	1861,31
577,78	1915,04
577,98	2032,80
578,18	1957,17
578,37	1952,26
578,57	1961,26
578,76	2064,19
578,96	2037,82
579,16	2093,45
579,35	2190,54
579,55	2199,59
579,74	2255,97
579,94	2314,76
580,14	2336,95
580,33	2478,10
580,53	2550,75
580,72	2648,67
580,92	2728,40
581,12	2795,01
581,31	2800,00
581,51	3041,46
581,70	3065,77
581,90	3247,18
582,10	3332,13
582,29	3481,31
582,49	3636,77
582,68	3775,97
582,88	3943,67
583,07	4160,83
583,27	4568,50
583,47	5087,13
583,66	5815,51
583,86	6785,08
584,05	7959,14
584,25	8890,21
584,44	9830,06
584,64	10460,90
584,84	10859,63
585,03	10887,71
585,23	10830,85
585,42	10883,14
585,62	10779,96
585,81	11204,53
586,01	11606,85
586,20	12501,59
586,40	13806,36
586,60	18405,22
586,79	51441,60
586,99	64128,05
587,18	64087,09
587,38	64158,76
587,57	64148,53
587,77	64089,13
587,96	64132,14
588,16	64142,38
588,35	64117,81
588,55	64095,28
588,75	64066,61
588,94	64062,51
589,14	64080,94
589,33	64111,66
589,53	64062,51
589,72	64191,53
589,92	64156,72
590,11	64132,14
590,31	64146,48
590,50	64099,37
590,70	64166,96
590,89	64082,99
591,09	64042,03
591,28	64093,23
591,48	64076,85
591,67	64113,71
591,87	64179,24
592,06	64197,68
592,26	64115,76
592,45	64044,08
592,65	64068,65
592,84	64126,00
593,04	64085,04
593,23	64107,57
593,43	64177,20
593,62	64158,76
593,82	64087,09
594,01	64136,24
594,21	64160,81
594,40	64076,85
594,60	64152,62
594,79	64117,81
594,99	64134,19
595,18	64037,93
595,38	64076,85
595,57	64109,61
595,77	64095,28
595,96	64132,14
596,16	64134,19
596,35	64103,47
596,55	64134,19
596,74	64080,94
596,94	64189,48
597,13	64132,14
597,33	64115,76
597,52	64146,48
597,72	64087,09
597,91	64103,47
598,11	64078,89
598,30	64140,33
598,50	64119,85
598,69	64152,62
598,88	64150,57
599,08	64121,90
599,27	64046,13
599,47	64046,13
599,66	64128,05
599,86	64148,53
600,05	64095,28
600,25	64119,85
600,44	64156,72
600,64	64156,72
600,83	64156,72
601,02	64062,51
601,22	64111,66
601,41	64078,89
601,61	64099,37
601,80	64052,27
602,00	64140,33
602,19	64162,86
602,38	64109,61
602,58	64087,09
602,77	64070,70
602,97	64173,10
603,16	64132,14
603,36	64101,42
603,55	64111,66
603,74	64060,46
603,94	64074,80
604,13	64093,23
604,33	64082,99
604,52	64107,57
604,72	64142,38
604,91	64109,61
605,10	64119,85
605,30	64089,13
605,49	64095,28
605,69	64154,67
605,88	64148,53
606,07	64103,47
606,27	64138,29
606,46	64154,67
606,66	64119,85
606,85	64121,90
607,04	64160,81
607,24	64119,85
607,43	64091,18
607,63	64140,33
607,82	64074,80
608,01	64101,42
608,21	64154,67
608,40	64107,57
608,60	64037,93
608,79	64126,00
608,98	64156,72
609,18	64107,57
609,37	64140,33
609,57	64195,63
609,76	64103,47
609,95	62766,44
610,15	64128,05
610,34	58028,18
610,53	59691,10
610,73	52431,81
610,92	53775,59
611,11	49472,34
611,31	49763,27
611,50	46680,01
611,70	47145,54
611,89	44593,71
612,08	44694,68
612,28	41225,39
612,47	42597,79
612,66	39075,36
612,86	39612,20
613,05	36921,99
613,24	37991,02
613,44	34769,65
613,63	35892,54
613,82	32421,84
614,02	34077,64
614,21	30120,16
614,41	32190,33
614,60	28437,94
614,79	30100,30
614,99	25541,40
615,18	27109,43
615,37	20155,55
615,57	21425,32
615,76	16408,84
615,95	16305,79
616,15	14237,45
616,34	14273,38
616,53	12155,69
616,73	11970,96
616,92	9751,88
617,11	9311,36
617,30	6251,88
617,50	5811,77
617,69	1033,24
617,88	1011,21
618,08	878,39
618,27	896,57
618,46	844,68
618,66	858,46
618,85	841,51
619,04	824,61
619,24	797,73
619,43	729,24
619,62	844,07
619,82	815,86
620,01	774,16
620,20	750,09
620,39	728,58
620,59	832,40
620,78	777,09
620,97	785,15
621,17	718,32
621,36	819,07
621,55	857,70
621,74	748,25
621,94	713,37
622,13	719,89
622,32	708,18
622,52	749,57
622,71	744,54
622,90	675,08
623,09	750,20
623,29	710,91
623,48	729,71
623,67	628,02
623,86	672,53
624,06	739,89
624,25	691,88
624,44	684,70
624,64	626,35
624,83	718,52
625,02	672,45
625,21	578,80
625,41	603,99
625,60	700,61
625,79	586,87
625,98	618,40
626,18	662,24
626,37	668,46
626,56	623,61
626,75	605,23
626,95	585,36
627,14	605,89
627,33	642,77
627,52	654,69
627,72	552,23
627,91	602,58
628,10	530,13
628,29	577,38
628,49	571,02
628,68	636,11
628,87	578,80
629,06	539,50
629,25	557,30
629,45	574,85
629,64	601,44
629,83	549,72
630,02	617,63
630,22	536,42
630,41	524,30
630,60	540,83
630,79	577,73
630,98	558,03
631,18	574,59
631,37	553,80
631,56	513,23
631,75	582,63
631,94	544,11
632,14	574,24
632,33	486,15
632,52	519,34
632,71	550,41
632,90	568,32
633,10	536,21
633,29	572,82
633,48	482,57
633,67	518,68
633,86	600,70
634,06	545,92
634,25	581,55
634,44	575,84
634,63	601,38
634,82	511,59
635,02	548,90
635,21	442,65
635,40	496,71
635,59	451,24
635,78	490,55
635,97	455,50
636,17	441,57
636,36	470,19
636,55	559,32
636,74	510,03
636,93	453,75
637,12	467,51
637,32	454,37
637,51	448,12
637,70	408,59
637,89	499,56
638,08	491,31
638,27	464,40
638,47	435,29
638,66	467,95
638,85	443,11
639,04	345,87
639,23	435,85
639,42	461,74
639,62	401,57
639,81	459,41
640,00	417,71
640,19	471,23
640,38	399,22
640,57	429,49
640,76	402,16
640,95	502,12
641,15	417,82
641,34	423,34
641,53	423,03
641,72	407,86
641,91	422,90
642,10	343,10
642,29	446,67
642,49	390,15
642,68	452,04
642,87	431,19
643,06	407,56
643,25	438,01
643,44	404,49
643,63	430,94
643,82	398,29
644,01	359,17
644,21	397,59
644,40	419,58
644,59	368,86
644,78	452,19
644,97	359,25
645,16	373,30
645,35	373,38
645,54	399,84
645,73	368,40
645,92	388,70
646,12	384,64
646,31	422,79
646,50	374,96
646,69	357,44
646,88	403,97
647,07	411,50
647,26	406,29
647,45	354,77
647,64	377,21
647,83	370,25
648,02	294,90
648,22	370,35
648,41	368,12
648,60	338,76
648,79	381,42
648,98	400,63
649,17	355,17
649,36	362,56
649,55	297,76
649,74	312,02
649,93	322,24
650,12	269,98
650,31	425,26
650,50	340,73
650,69	358,09
650,88	332,03
651,08	326,52
651,27	301,31
651,46	326,64
651,65	265,21
651,84	346,58
652,03	315,84
652,22	342,20
652,41	322,00
652,60	257,34
652,79	385,17
652,98	316,12
653,17	347,62
653,36	249,88
653,55	322,09
653,74	299,20
653,93	336,98
654,12	363,76
654,31	336,96
654,50	322,03
654,69	308,44
654,88	356,59
655,07	256,39
655,26	257,53
655,45	276,73
655,64	259,95
655,83	253,07
656,02	319,72
656,21	344,20
656,40	324,73
656,59	348,57
656,78	207,76
656,97	297,97
657,17	310,96
657,36	298,14
657,55	274,43
657,74	300,58
657,93	190,68
658,12	232,01
658,31	272,30
658,50	257,82
658,69	294,92
658,87	292,10
659,06	202,68
659,25	252,18
659,44	258,55
659,63	293,23
659,82	170,82
660,01	257,64
660,20	266,40
660,39	267,18
660,58	294,76
660,77	299,03
660,96	242,80
661,15	273,29
661,34	198,67
661,53	231,19
661,72	261,52
661,91	210,82
662,10	265,55
662,29	166,81
662,48	234,88
662,67	225,18
662,86	199,07
663,05	179,11
663,24	207,33
663,43	178,18
663,62	177,74
663,81	263,85
664,00	264,88
664,19	253,05
664,38	194,35
664,57	245,00
664,76	225,70
664,94	160,40
665,13	203,90
665,32	222,41
665,51	201,24
665,70	202,18
665,89	219,00
666,08	166,92
666,27	288,46
666,46	214,67
666,65	229,38
666,84	203,63
667,03	251,60
667,22	309,61
667,41	219,48
667,60	170,68
667,78	177,94
667,97	152,90
668,16	169,25
668,35	236,79
668,54	171,45
668,73	153,53
668,92	208,57
669,11	153,83
669,30	159,11
669,49	152,35
669,68	193,81
669,86	199,64
670,05	188,34
670,24	101,41
670,43	170,78
670,62	102,38
670,81	176,34
671,00	181,20
671,19	193,81
671,38	198,78
671,57	162,80
671,75	157,85
671,94	224,57
672,13	219,91
672,32	161,81
672,51	247,41
672,70	137,38
672,89	165,64
673,08	232,16
673,26	136,57
673,45	110,28
673,64	193,64
673,83	218,57
674,02	65,00
674,21	145,65
674,40	134,84
674,59	107,35
674,77	162,94
674,96	150,31
675,15	148,16
675,34	144,12
675,53	198,75
675,72	144,50
675,91	164,90
676,09	112,87
676,28	138,29
676,47	87,90
676,66	151,00
676,85	105,74
677,04	52,57
677,22	168,97
677,41	126,32
677,60	97,34
677,79	129,64
677,98	109,69
678,17	170,08
678,36	148,92
678,54	202,83
678,73	121,78
678,92	101,96
679,11	138,80
679,30	136,23
679,48	54,17
679,67	158,51
679,86	59,37
680,05	86,38
680,24	107,08
680,43	117,31
680,61	110,20
680,80	97,46
680,99	156,24
681,18	132,75
681,37	87,91
681,55	107,96
681,74	115,65
681,93	87,23
682,12	83,70
682,31	100,91
682,49	109,29
682,68	47,98
682,87	94,50
683,06	117,25
683,25	104,62
683,43	61,14
683,62	107,49
683,81	121,34
684,00	71,74
684,19	114,52
684,37	151,38
684,56	123,54
684,75	92,77
684,94	27,73
685,12	79,21
685,31	105,35
685,50	107,91
685,69	127,90
685,88	103,82
686,06	83,16
686,25	137,39
686,44	27,36
686,63	99,10
686,81	105,40
687,00	131,20
687,19	93,62
687,38	35,93
687,56	121,44
687,75	153,40
687,94	92,89
688,13	145,64
688,31	190,98
688,50	91,66
688,69	106,57
688,88	202,93
689,06	14,03
689,25	45,51
689,44	127,79
689,63	18,87
689,81	55,81
690,00	102,33
690,19	67,54
690,38	100,75
690,56	26,05
690,75	87,86
690,94	82,58
691,13	139,56
691,31	21,56
691,50	56,09
691,69	123,57
691,87	133,71
692,06	121,54
692,25	-9,56
692,44	55,79
692,62	108,54
692,81	71,10
693,00	18,51
693,18	100,71
693,37	45,84
693,56	59,80
693,75	66,68
693,93	75,66
694,12	73,27
694,31	30,23
694,49	52,13
694,68	75,85
694,87	193,90
695,05	259,18
695,24	387,80
695,43	478,98
695,62	590,26
695,80	630,11
695,99	632,98
696,18	700,14
696,36	694,80
696,55	720,66
696,74	589,25
696,92	526,79
697,11	458,77
697,30	475,82
697,48	486,36
697,67	458,70
697,86	427,31
698,04	286,89
698,23	217,90
698,42	214,24
698,60	45,25
698,79	156,95
698,98	138,93
699,16	121,39
699,35	87,24
699,54	35,11
699,72	94,43
699,91	127,90
700,10	41,43
700,28	95,99
700,47	1,82
700,66	73,96
700,84	31,22
701,03	93,85
701,21	81,44
701,40	30,44
701,59	113,73
701,77	112,80
701,96	52,93
702,15	-0,11
702,33	57,84
702,52	198,43
702,71	70,44
702,89	146,36
703,08	96,07
703,26	112,53
703,45	91,02
703,64	100,36
703,82	39,50
704,01	49,65
704,20	23,04
704,38	130,79
704,57	79,34
704,75	134,74
704,94	92,79
705,13	163,93
705,31	197,05
705,50	293,76
705,68	345,93
705,87	380,42
706,06	528,23
706,24	514,70
706,43	455,53
706,61	482,02
706,80	446,79
706,99	443,19
707,17	425,05
707,36	320,68
707,54	352,12
707,73	301,24
707,92	236,37
708,10	219,43
708,29	232,27
708,47	158,20
708,66	91,87
708,84	46,51
709,03	109,32
709,22	60,93
709,40	37,88
709,59	39,22
709,77	72,44
709,96	82,17
710,14	42,14
710,33	45,00
710,52	68,27
710,70	6,72
710,89	26,68
711,07	30,30
711,26	41,19
711,44	88,18
711,63	109,39
711,81	38,78
712,00	78,91
712,19	49,17
712,37	43,11
712,56	100,74
712,74	56,13
712,93	12,41
713,11	57,31
713,30	132,83
713,48	58,19
713,67	107,12
713,85	92,96
714,04	131,07
714,22	99,79
714,41	102,90
714,59	52,17
714,78	88,35
714,97	78,77
715,15	74,07
715,34	91,43
715,52	123,60
715,71	126,25
715,89	110,93
716,08	77,15
716,26	65,72
716,45	91,01
716,63	128,16
716,82	62,40
717,00	98,35
717,19	61,68
717,37	84,47
717,56	33,28
717,74	67,65
717,93	77,54
718,11	65,67
718,30	58,48
718,48	87,11
718,67	88,81
718,85	4,96
719,04	98,61
719,22	71,40
719,41	91,66
719,59	76,19
719,78	95,66
719,96	35,44
720,15	78,95
720,33	47,00
720,52	-5,62
720,70	72,26
720,88	59,48
721,07	84,44
721,25	31,19
721,44	104,11
721,62	30,56
721,81	53,30
721,99	81,88
722,18	54,00
722,36	39,36
722,55	90,77
722,73	46,53
722,92	37,49
723,10	107,49
723,28	54,64
723,47	102,93
723,65	85,37
723,84	-12,54
724,02	88,24
724,21	139,12
724,39	86,92
724,58	67,33
724,76	37,95
724,94	12,68
725,13	52,70
725,31	83,36
725,50	140,77
725,68	102,39
725,87	115,78
726,05	131,46
726,23	131,92
726,42	200,55
726,60	200,28
726,79	176,94
726,97	247,50
727,16	114,23
727,34	202,29
727,52	195,89
727,71	145,36
727,89	174,67
728,08	208,21
728,26	33,56
728,44	99,22
728,63	106,68
728,81	128,95
729,00	82,94
729,18	61,47
729,36	50,58
729,55	67,65
729,73	4,58
729,92	76,28
730,10	64,85
730,28	82,65
730,47	27,09
730,65	91,19
730,84	32,36
731,02	8,57
731,20	56,66
731,39	34,97
731,57	69,56
731,75	14,13
731,94	15,79
732,12	56,33
732,31	85,51
732,49	-12,69
732,67	39,61
732,86	4,28
733,04	31,04
733,22	81,55
733,41	55,09
733,59	24,63
733,78	-37,66
733,96	47,71
734,14	38,74
734,33	23,50
734,51	-0,94
734,69	22,86
734,88	26,91
735,06	90,14
735,24	36,49
735,43	46,54
735,61	113,68
735,79	84,46
735,98	133,52
736,16	54,17
736,34	105,74
736,53	67,66
736,71	230,40
736,89	233,89
737,08	375,57
737,26	477,22
737,44	570,62
737,63	775,65
737,81	783,46
737,99	777,43
738,18	752,51
738,36	757,64
738,54	700,53
738,73	609,06
738,91	483,89
739,09	328,56
739,28	323,81
739,46	290,97
739,64	260,20
739,82	186,17
740,01	202,14
740,19	186,02
740,37	194,55
740,56	98,14
740,74	39,44
740,92	28,67
741,11	51,67
741,29	59,75
741,47	8,02
741,65	50,26
741,84	34,54
742,02	40,70
742,20	13,04
742,39	58,05
742,57	98,16
742,75	66,15
742,93	102,73
743,12	40,76
743,30	98,68
743,48	110,59
743,67	82,20
743,85	56,91
744,03	19,62
744,21	2,08
744,40	40,68
744,58	46,06
744,76	31,43
744,94	10,66
745,13	48,17
745,31	94,70
745,49	88,54
745,67	19,30
745,86	27,34
746,04	29,94
746,22	32,93
746,40	92,68
746,59	44,73
746,77	90,97
746,95	139,94
747,13	83,94
747,32	17,22
747,50	124,80
747,68	104,04
747,86	89,97
748,05	38,01
748,23	77,45
748,41	10,81
748,59	143,34
748,77	98,56
748,96	202,62
749,14	270,21
749,32	393,14
749,50	488,42
749,69	609,94
749,87	717,65
750,05	820,43
750,23	893,70
750,41	862,67
750,60	943,19
750,78	924,81
750,96	890,96
751,14	799,35
751,32	739,08
751,51	727,42
751,69	626,44
751,87	434,13
752,05	445,34
752,23	382,11
752,42	273,32
752,60	243,86
752,78	307,10
752,96	197,58
753,14	229,28
753,33	169,19
753,51	112,01
753,69	102,65
753,87	182,42
754,05	7,29
754,23	109,74
754,42	69,80
754,60	-35,22
754,78	51,66
754,96	11,23
755,14	60,45
755,32	30,38
755,51	68,82
755,69	70,84
755,87	53,84
756,05	-5,51
756,23	67,39
756,41	121,03
756,60	20,26
756,78	105,79
756,96	85,60
757,14	101,85
757,32	-21,16
757,50	69,10
757,68	109,78
757,87	70,21
758,05	86,17
758,23	3,98
758,41	53,62
758,59	12,43
758,77	35,07
758,95	104,45
759,14	46,88
759,32	79,80
759,50	30,33
759,68	71,06
759,86	77,35
760,04	65,68
760,22	67,43
760,40	55,46
760,59	4,85
760,77	39,19
760,95	66,35
761,13	73,32
761,31	46,17
761,49	112,16
761,67	207,94
761,85	407,40
762,03	736,42
762,22	1256,79
762,40	1752,26
762,58	2361,08
762,76	2777,40
762,94	3018,24
763,12	2983,50
763,30	2769,12
763,48	2310,80
763,66	1947,21
763,84	1544,49
764,02	1244,03
764,21	1079,96
764,39	779,71
764,57	852,77
764,75	880,76
764,93	1018,62
765,11	1487,27
765,29	1945,65
765,47	2212,88
765,65	2416,75
765,83	2317,70
766,01	2070,26
766,19	1659,79
766,37	1238,79
766,56	946,16
766,74	689,35
766,92	548,58
767,10	447,65
767,28	322,01
767,46	275,66
767,64	260,54
767,82	212,86
768,00	228,04
768,18	271,55
768,36	370,20
768,54	646,46
768,72	909,28
768,90	1079,21
769,08	1233,36
769,26	1254,34
769,44	1086,04
769,62	862,55
769,80	616,10
769,98	470,58
770,16	315,61
770,34	275,30
770,52	224,46
770,71	269,92
770,89	379,95
771,07	581,80
771,25	698,45
771,43	880,92
771,61	976,62
771,79	1149,63
771,97	1145,72
772,15	1017,72
772,33	931,83
772,51	689,90
772,69	560,97
772,87	471,08
773,05	353,13
773,23	296,39
773,41	309,34
773,59	278,73
773,77	261,54
773,95	221,01
774,13	212,18
774,31	212,64
774,49	189,13
774,67	130,92
774,85	174,31
775,03	104,30
775,21	107,25
775,39	93,67
775,57	10,29
775,75	75,48
775,93	55,47
776,10	127,35
776,28	67,88
776,46	62,99
776,64	9,55
776,82	45,55
777,00	55,48
777,18	100,49
777,36	-5,76
777,54	51,68
777,72	26,96
777,90	21,66
778,08	85,40
778,26	77,19
778,44	28,32
778,62	116,69
778,80	19,10
778,98	47,80
779,16	74,06
779,34	106,52
779,52	29,92
779,70	125,85
779,88	24,20
780,05	59,18
780,23	3,09
780,41	51,06
780,59	27,80
780,77	33,83
780,95	8,20
781,13	-4,23
781,31	-34,78
781,49	102,62
781,67	71,41
781,85	33,18
782,03	-5,80
782,21	35,35
782,39	26,59
782,56	74,88
782,74	92,21
782,92	67,08
783,10	40,08
783,28	-24,27
783,46	88,04
783,64	70,60
783,82	34,68
784,00	18,69
784,18	82,04
784,35	28,13
784,53	56,18
784,71	23,00
784,89	69,68
785,07	104,43
785,25	81,42
785,43	83,25
785,61	135,90
785,79	26,91
785,96	-2,65
786,14	79,89
786,32	-31,32
786,50	51,29
786,68	63,63
786,86	50,39
787,04	-3,66
787,22	86,63
787,39	65,15
787,57	26,41
787,75	48,97
787,93	27,77
788,11	57,54
788,29	-16,67
788,47	-10,60
788,65	41,63
788,82	-5,45
789,00	18,81
789,18	-19,83
789,36	6,56
789,54	57,37
789,72	47,19
789,89	50,48
790,07	42,76
790,25	102,93
790,43	-3,21
790,61	65,45
790,79	82,96
790,96	-22,64
791,14	104,74
791,32	48,30
791,50	117,34
791,68	31,23
791,86	91,91
792,03	83,74
792,21	56,47
792,39	34,50
792,57	51,61
792,75	83,77
792,93	5,41
793,10	112,24
793,28	139,60
793,46	147,98
793,64	349,41
793,82	395,81
793,99	423,92
794,17	552,52
794,35	549,15
794,53	538,88
794,71	434,18
794,88	330,53
795,06	276,57
795,24	226,35
795,42	252,87
795,60	192,67
795,77	180,44
795,95	208,51
796,13	74,64
796,31	202,86
796,49	175,92
796,66	143,53
796,84	146,79
797,02	155,64
797,20	103,40
797,37	130,87
797,55	97,86
797,73	85,09
797,91	48,25
798,08	81,17
798,26	76,13
798,44	119,68
798,62	76,85
798,80	106,05
798,97	111,11
799,15	103,36
799,33	144,42
799,51	210,20
799,68	313,09
799,86	332,71
800,04	473,03
800,22	534,96
800,39	593,29
800,57	658,31
800,75	628,62
800,93	672,77
801,10	617,31
801,28	471,24
801,46	423,93
801,63	361,60
801,81	328,89
801,99	317,16
802,17	298,10
802,34	249,61
802,52	275,20
802,70	203,67
802,88	224,75
803,05	215,68
803,23	133,33
803,41	255,55
803,58	133,93
803,76	143,53
803,94	145,87
804,12	75,57
804,29	111,63
804,47	176,76
804,65	3,01
804,82	103,96
805,00	23,41
805,18	82,96
805,35	86,56
805,53	104,56
805,71	77,05
805,89	129,97
806,06	49,48
806,24	44,63
806,42	48,86
806,59	42,93
806,77	45,34
806,95	48,71
807,12	31,85
807,30	113,61
807,48	42,84
807,65	141,14
807,83	22,94
808,01	17,59
808,18	93,10
808,36	67,67
808,54	83,00
808,71	222,56
808,89	234,94
809,07	351,13
809,24	515,34
809,42	575,59
809,60	586,04
809,77	733,13
809,95	880,22
810,13	1124,58
810,30	1386,45
810,48	1659,51
810,66	1770,98
810,83	1893,01
811,01	1901,67
811,18	1740,70
811,36	1575,92
811,54	1354,25
811,71	1106,14
811,89	1050,64
812,07	910,89
812,24	801,86
812,42	742,46
812,59	741,11
812,77	634,64
812,95	616,24
813,12	668,32
813,30	587,41
813,48	585,63
813,65	584,17
813,83	432,78
814,00	401,87
814,18	422,45
814,36	276,69
814,53	232,90
814,71	284,79
814,88	212,44
815,06	186,22
815,24	221,69
815,41	219,17
815,59	253,94
815,76	257,67
815,94	317,37
816,12	351,48
816,29	416,04
816,47	1007,38
816,64	2630,66
816,82	6183,51
817,00	11775,62
817,17	18308,82
817,35	24208,35
817,52	27165,78
817,70	29005,18
817,87	30235,93
818,05	32850,93
818,23	37010,16
818,40	42451,49
818,58	45392,81
818,75	46510,79
818,93	44632,25
819,10	40152,19
819,28	32264,17
819,46	24238,74
819,63	18617,75
819,81	15340,95
819,98	12648,47
820,16	10640,86
820,33	9094,34
820,51	7831,37
820,68	6607,03
820,86	5727,48
821,03	4901,08
821,21	4162,39
821,39	3621,45
821,56	3211,58
821,74	2668,89
821,91	2220,11
822,09	1768,09
822,26	1327,18
822,44	1023,36
822,61	722,17
822,79	541,73
822,96	429,17
823,14	322,06
823,31	270,67
823,49	194,56
823,66	165,69
823,84	142,25
824,01	115,67
824,19	103,97
824,36	116,11
824,54	130,21
824,71	100,85
824,89	105,13
825,06	193,02
825,24	284,81
825,41	310,49
825,59	264,76
825,76	274,00
825,94	257,56
826,11	324,14
826,29	242,82
826,46	182,59
826,64	234,40
826,81	184,35
826,99	192,57
827,16	166,59
827,34	229,16
827,51	154,77
827,69	99,79
827,86	214,30
828,04	230,19
828,21	240,63
828,39	153,57
828,56	155,38
828,74	100,12
828,91	110,99
829,09	94,96
829,26	73,44
829,43	95,02
829,61	91,52
829,78	89,84
829,96	72,82
830,13	84,97
830,31	49,53
830,48	89,84
830,66	38,78
830,83	71,09
831,01	22,77
831,18	36,24
831,35	71,05
831,53	7,47
831,70	91,01
831,88	-32,19
832,05	92,15
832,23	-8,14
832,40	69,95
832,57	65,73
832,75	70,44
832,92	47,23
833,10	64,00
833,27	42,49
833,45	36,25
833,62	60,46
833,79	69,88
833,97	29,12
834,14	82,20
834,32	75,69
834,49	126,72
834,66	83,50
834,84	26,47
835,01	-1,13
835,19	41,47
835,36	42,03
835,53	94,37
835,71	64,52
835,88	26,03
836,06	11,07
836,23	84,46
836,40	96,84
836,58	102,01
836,75	40,73
836,93	31,31
837,10	-8,68
837,27	86,39
837,45	31,53
837,62	43,02
837,79	73,94
837,97	88,07
838,14	39,45
838,32	92,44
838,49	51,80
838,66	26,74
838,84	20,81
839,01	7,06
839,18	147,25
839,36	168,42
839,53	217,42
839,70	220,39
839,88	299,82
840,05	309,62
840,23	352,75
840,40	308,10
840,57	282,41
840,75	370,93
840,92	314,79
841,09	333,73
841,27	424,73
841,44	490,62
841,61	466,66
841,79	501,30
841,96	555,11
842,13	539,43
842,31	467,09
842,48	398,80
842,65	409,53
842,83	364,55
843,00	326,98
843,17	358,69
843,35	388,19
843,52	346,20
843,69	224,64
843,86	257,91
844,04	292,39
844,21	286,79
844,38	201,83
844,56	233,49
844,73	194,16
844,90	175,98
845,08	176,42
845,25	180,18
845,42	147,50
845,60	52,94
845,77	103,22
845,94	58,89
846,11	27,23
846,29	74,39
846,46	73,01
846,63	51,36
846,81	43,58
846,98	23,27
847,15	65,29
847,32	22,41
847,50	57,82
847,67	-8,12
847,84	-0,43
848,01	99,29
848,19	77,12
848,36	26,84
848,53	4,67
848,71	40,14
848,88	20,56
849,05	30,01
849,22	79,79
849,40	-37,32
849,57	51,09
849,74	-13,02
849,91	-34,11
850,09	50,32
850,26	77,08
850,43	55,93
850,60	51,77
850,78	66,27
850,95	108,97
851,12	210,65
851,29	48,18
851,47	44,02
851,64	149,25
851,81	110,93
851,98	110,27
852,15	190,67
852,33	75,54
852,50	60,75
852,67	133,52
852,84	110,44
853,02	63,69
853,19	87,04
853,36	67,92
853,53	87,16
853,70	140,48
853,88	83,62
854,05	39,51
854,22	32,78
854,39	57,04
854,56	50,20
854,74	35,11
854,91	33,13
855,08	46,29
855,25	35,37
855,42	105,43
855,60	65,19
855,77	31,14
855,94	69,40
856,11	57,80
856,28	1,91
856,46	-20,21
856,63	-14,80
856,80	28,91
856,97	70,31
857,14	22,40
857,31	39,61
857,49	-10,92
857,66	50,93
857,83	43,24
858,00	-13,20
858,17	69,07
858,34	42,63
858,52	68,15
858,69	80,56
858,86	79,89
859,03	60,61
859,20	49,77
859,37	108,80
859,55	103,45
859,72	62,19
859,89	17,91
860,06	-15,44
860,23	100,48
860,40	-11,42
860,57	10,59
860,75	39,23
860,92	50,55
861,09	18,35
861,26	-3,46
861,43	21,50
861,60	47,40
861,77	64,05
861,95	-34,72
862,12	-6,03
862,29	70,51
862,46	6,78
862,63	-5,35
862,80	25,22
862,97	33,82
863,14	62,94
863,31	-0,37
863,49	9,04
863,66	5,24
863,83	31,18
864,00	11,39
864,17	22,07
864,34	86,29
864,51	-10,20
864,68	21,50
864,85	62,59
865,02	-30,96
865,20	50,52
865,37	46,58
865,54	61,40
865,71	31,91
865,88	41,19
866,05	58,97
866,22	42,33
866,39	5,43
866,56	7,55
866,73	8,73
866,90	29,42
867,07	94,04
867,25	73,62
867,42	93,73
867,59	-11,48
867,76	27,76
867,93	50,13
868,10	18,99
868,27	47,06
868,44	45,27
868,61	31,28
868,78	13,85
868,95	79,06
869,12	32,14
869,29	84,67
869,46	-8,56
869,63	94,83
869,80	51,17
869,97	-25,82
870,14	84,00
870,32	-7,60
870,49	3,81
870,66	39,49
870,83	70,07
871,00	22,74
871,17	43,00
871,34	-15,87
871,51	22,83
871,68	41,58
871,85	-60,70
872,02	21,81
872,19	15,75
872,36	55,94
872,53	60,45
872,70	12,83
872,87	52,85
873,04	1,82
873,21	-16,19
873,38	39,23
873,55	79,01
873,72	0,14
873,89	53,05
874,06	54,20
874,23	27,72
874,40	19,94
874,57	7,32
874,74	3,46
874,91	76,29
875,08	43,26
875,25	3,77
875,42	85,14
875,59	5,08
875,76	-17,75
875,93	60,82
876,10	23,14
876,27	35,72
876,44	0,65
876,61	20,56
876,78	24,68
876,95	25,43
877,12	12,92
877,29	30,98
877,46	-22,25
877,62	31,85
877,79	-19,45
877,96	49,16
878,13	34,46
878,30	-21,17
878,47	39,37
878,64	-46,26
878,81	-20,59
878,98	-5,10
879,15	21,77
879,32	53,89
879,49	15,24
879,66	2,28
879,83	-10,75
880,00	-1,99
880,17	59,94
880,34	23,78
880,51	98,79
880,67	124,90
880,84	21,45
881,01	-13,69
881,18	11,07
881,35	103,87
881,52	-0,01
881,69	59,74
881,86	6,98
882,03	-5,45
882,20	50,26
882,37	-37,43
882,54	40,35
882,70	58,19
882,87	48,11
883,04	62,52
883,21	6,57
883,38	53,55
883,55	40,27
883,72	-19,10
883,89	11,69
884,06	23,14
884,23	35,00
884,39	49,36
884,56	13,20
884,73	99,60
884,90	30,00
885,07	27,14
885,24	67,59
885,41	36,52
885,58	61,26
885,74	88,46
885,91	8,55
886,08	17,99
886,25	60,59
886,42	25,49
886,59	106,45
886,76	-3,62
886,93	0,30
887,09	52,69
887,26	-15,06
887,43	4,38
887,60	42,36
887,77	14,51
887,94	-6,75
888,10	15,21
888,27	5,53
888,44	45,28
888,61	58,13
888,78	34,70
888,95	-15,70
889,12	-23,50
889,28	7,82
889,45	53,99
889,62	66,83
889,79	-16,18
889,96	-55,82
890,13	28,99
890,29	9,20
890,46	11,68
890,63	33,17
890,80	-44,65
890,97	9,30
891,13	0,12
891,30	38,65
891,47	-8,33
891,64	20,32
891,81	47,90
891,98	41,12
892,14	59,50
892,31	-12,43
892,48	-54,45
892,65	-29,45
892,82	55,81
892,98	92,28
893,15	-15,39
893,32	44,09
>>>>>End Processed Spectral Data<<<<<
