SpectraSuite Datei
++++++++++++++++++++++++++++++++++++
Datum: Mon Feb 18 15:34:28 CET 2019
Benutzer: Admin
Dark-Spektrum vorhanden: Ja
Referenz-Spektrum vorhanden: Ja
Zahl der probierten Teilspektren: 1
Spektrometer: USB4F05832
Integrationszeit (usec): 5000 (USB4F05832)
Spektren Durchschnitt berechnet: 1 (USB4F05832)
Boxcar Glättung: 0 (USB4F05832)
Dunkelstromkorrektur: Nein (USB4F05832)
Puls/Lampe aktiviert: Nein (USB4F05832)
Correct for Detector Non-linearity: Nein (USB4F05832)
Streulichtkorrektur: Nein (USB4F05832)
Anzahl Pixel in verarbeitetem Spektrum: 3648
>>>>>Begin Processed Spectral Data<<<<<
177,54	20,48
177,75	20,48
177,97	20,48
178,19	28,67
178,41	-8,19
178,63	18,43
178,85	47,10
179,07	51,20
179,29	-4,10
179,51	-2,05
179,73	98,30
179,95	-49,15
180,17	14,34
180,39	32,77
180,61	8,19
180,83	-79,87
181,05	4,10
181,27	-49,15
181,49	8,19
181,71	-69,63
181,92	-2,05
182,14	32,77
182,36	-26,62
182,58	4,10
182,80	-22,53
183,02	86,01
183,24	116,73
183,46	-40,96
183,68	-4,10
183,90	-4,10
184,12	18,43
184,34	116,73
184,56	10,24
184,78	-14,34
185,00	8,19
185,21	-53,25
185,43	-6,14
185,65	40,96
185,87	8,19
186,09	-49,15
186,31	38,91
186,53	-20,48
186,75	79,87
186,97	-49,15
187,19	88,06
187,41	4,10
187,63	-22,53
187,84	-59,39
188,06	-63,49
188,28	-55,30
188,50	26,62
188,72	-65,54
188,94	2,05
189,16	-36,86
189,38	51,20
189,60	-55,30
189,82	47,10
190,03	-4,10
190,25	40,96
190,47	16,38
190,69	8,19
190,91	18,43
191,13	-75,77
191,35	77,82
191,57	-2,05
191,79	-47,10
192,01	-51,20
192,22	-4,10
192,44	-32,77
192,66	-8,19
192,88	45,06
193,10	8,19
193,32	-14,34
193,54	-71,68
193,76	-18,43
193,98	153,60
194,19	-112,64
194,41	-14,34
194,63	43,01
194,85	0,00
195,07	96,25
195,29	26,62
195,51	2,05
195,73	-30,72
195,94	-16,38
196,16	6,14
196,38	-8,19
196,60	-8,19
196,82	12,29
197,04	67,58
197,26	-63,49
197,48	96,25
197,69	14,34
197,91	49,15
198,13	40,96
198,35	-49,15
198,57	51,20
198,79	94,21
199,01	77,82
199,22	14,34
199,44	104,45
199,66	-45,06
199,88	79,87
200,10	32,77
200,32	45,06
200,54	-77,82
200,75	8,19
200,97	-47,10
201,19	-24,58
201,41	106,49
201,63	-22,53
201,85	-20,48
202,06	88,06
202,28	-28,67
202,50	6,14
202,72	57,34
202,94	12,29
203,16	10,24
203,38	32,77
203,59	-8,19
203,81	-36,86
204,03	-18,43
204,25	-49,15
204,47	-18,43
204,69	22,53
204,90	102,40
205,12	4,10
205,34	-10,24
205,56	-55,30
205,78	67,58
206,00	61,44
206,21	8,19
206,43	10,24
206,65	18,43
206,87	-2,05
207,09	-28,67
207,30	-81,92
207,52	59,39
207,74	40,96
207,96	-28,67
208,18	12,29
208,40	118,78
208,61	-20,48
208,83	-32,77
209,05	2,05
209,27	104,45
209,49	26,62
209,70	-12,29
209,92	-8,19
210,14	-73,73
210,36	86,01
210,58	-69,63
210,79	10,24
211,01	-22,53
211,23	90,11
211,45	59,39
211,67	26,62
211,88	-36,86
212,10	28,67
212,32	18,43
212,54	-24,58
212,76	-10,24
212,97	8,19
213,19	38,91
213,41	-18,43
213,63	77,82
213,85	38,91
214,06	0,00
214,28	38,91
214,50	-28,67
214,72	77,82
214,94	0,00
215,15	36,86
215,37	6,14
215,59	-49,15
215,81	6,14
216,02	-8,19
216,24	-45,06
216,46	73,73
216,68	16,38
216,90	40,96
217,11	-26,62
217,33	2,05
217,55	-8,19
217,77	12,29
217,98	24,58
218,20	30,72
218,42	-53,25
218,64	20,48
218,85	59,39
219,07	-4,10
219,29	8,19
219,51	40,96
219,73	-32,77
219,94	10,24
220,16	24,58
220,38	-2,05
220,60	-16,38
220,81	14,34
221,03	-24,58
221,25	-49,15
221,47	-75,77
221,68	-14,34
221,90	18,43
222,12	-4,10
222,34	-14,34
222,55	24,58
222,77	26,62
222,99	67,58
223,21	-47,10
223,42	-40,96
223,64	18,43
223,86	20,48
224,08	2,05
224,29	-4,10
224,51	69,63
224,73	26,62
224,94	4,10
225,16	32,77
225,38	16,38
225,60	61,44
225,81	4,10
226,03	81,92
226,25	65,54
226,47	-4,10
226,68	-26,62
226,90	40,96
227,12	-8,19
227,33	83,97
227,55	-2,05
227,77	-86,01
227,99	18,43
228,20	-10,24
228,42	88,06
228,64	14,34
228,86	-12,29
229,07	-40,96
229,29	71,68
229,51	-40,96
229,72	65,54
229,94	10,24
230,16	-32,77
230,38	22,53
230,59	8,19
230,81	4,10
231,03	-8,19
231,24	67,58
231,46	-18,43
231,68	49,15
231,89	-8,19
232,11	-8,19
232,33	-40,96
232,55	51,20
232,76	86,01
232,98	24,58
233,20	-10,24
233,41	-49,15
233,63	-45,06
233,85	-38,91
234,06	83,97
234,28	-75,77
234,50	63,49
234,71	77,82
234,93	-34,82
235,15	-6,14
235,37	-26,62
235,58	-18,43
235,80	-2,05
236,02	59,39
236,23	4,10
236,45	-2,05
236,67	-8,19
236,88	-28,67
237,10	63,49
237,32	16,38
237,53	6,14
237,75	40,96
237,97	4,10
238,18	10,24
238,40	24,58
238,62	61,44
238,83	88,06
239,05	-73,73
239,27	-55,30
239,48	65,53
239,70	-92,16
239,92	75,77
240,13	-6,14
240,35	10,24
240,57	53,25
240,78	-2,05
241,00	55,30
241,22	32,77
241,43	-10,24
241,65	20,48
241,87	-2,05
242,08	-45,06
242,30	-32,77
242,52	-14,34
242,73	-14,34
242,95	-28,67
243,16	-4,10
243,38	-10,24
243,60	-63,49
243,81	-4,10
244,03	-49,15
244,25	34,82
244,46	18,43
244,68	-40,96
244,90	75,77
245,11	94,21
245,33	55,30
245,55	43,01
245,76	12,29
245,98	40,96
246,19	-8,19
246,41	96,25
246,63	-4,10
246,84	-12,29
247,06	96,25
247,28	-8,19
247,49	-20,48
247,71	176,13
247,92	22,53
248,14	-49,15
248,36	-8,19
248,57	-20,48
248,79	26,62
249,01	-57,34
249,22	-18,43
249,44	-77,82
249,65	116,73
249,87	0,00
250,09	30,72
250,30	38,91
250,52	32,77
250,73	30,72
250,95	-16,38
251,17	167,93
251,38	-24,58
251,60	-47,10
251,81	-22,53
252,03	24,58
252,25	-45,06
252,46	-45,06
252,68	24,58
252,89	-10,24
253,11	63,49
253,33	8,19
253,54	61,44
253,76	-71,68
253,97	-51,20
254,19	32,77
254,41	-36,86
254,62	18,43
254,84	-8,19
255,05	-75,77
255,27	63,49
255,49	-59,39
255,70	-10,24
255,92	-28,67
256,13	-98,30
256,35	-2,05
256,56	-45,06
256,78	-36,86
257,00	-22,53
257,21	0,00
257,43	26,62
257,64	83,97
257,86	18,43
258,08	49,15
258,29	-10,24
258,51	73,73
258,72	40,96
258,94	-77,82
259,15	-6,14
259,37	36,86
259,59	-24,58
259,80	51,20
260,02	26,62
260,23	59,39
260,45	-6,14
260,66	0,00
260,88	-2,05
261,09	129,02
261,31	-28,67
261,53	24,58
261,74	-2,05
261,96	98,30
262,17	-12,29
262,39	-67,58
262,60	6,14
262,82	10,24
263,03	20,48
263,25	-26,62
263,46	20,48
263,68	32,77
263,90	-45,06
264,11	-16,38
264,33	16,38
264,54	24,58
264,76	-10,24
264,97	65,54
265,19	8,19
265,40	57,34
265,62	16,38
265,83	147,45
266,05	36,86
266,26	43,01
266,48	65,53
266,70	40,96
266,91	59,39
267,13	6,14
267,34	40,96
267,56	20,48
267,77	-51,20
267,99	-18,43
268,20	36,86
268,42	6,14
268,63	45,06
268,85	30,72
269,06	59,39
269,28	47,10
269,49	-83,97
269,71	-30,72
269,92	-34,82
270,14	-6,14
270,35	-104,45
270,57	2,05
270,78	-6,14
271,00	-10,24
271,21	-69,63
271,43	-63,49
271,64	-96,25
271,86	32,77
272,07	32,77
272,29	12,29
272,50	65,54
272,72	-16,38
272,93	20,48
273,15	116,73
273,36	-12,29
273,58	-40,96
273,79	-67,58
274,01	-24,58
274,22	10,24
274,44	-16,38
274,65	-51,20
274,87	38,91
275,08	55,30
275,30	-57,34
275,51	-43,01
275,73	79,87
275,94	-63,49
276,16	-30,72
276,37	-112,64
276,59	-43,01
276,80	-32,77
277,02	55,30
277,23	34,82
277,45	6,14
277,66	22,53
277,88	26,62
278,09	-6,14
278,30	16,38
278,52	-47,10
278,73	0,00
278,95	32,77
279,16	-8,19
279,38	-83,97
279,59	-102,40
279,81	45,06
280,02	-22,53
280,24	8,19
280,45	61,44
280,67	-45,06
280,88	24,58
281,09	-26,62
281,31	129,02
281,52	12,29
281,74	55,30
281,95	-20,48
282,17	79,87
282,38	-16,38
282,60	-83,97
282,81	-112,64
283,02	40,96
283,24	141,31
283,45	28,67
283,67	26,62
283,88	55,30
284,10	-55,30
284,31	90,11
284,53	38,91
284,74	-14,34
284,95	-63,49
285,17	43,01
285,38	-6,14
285,60	96,25
285,81	28,67
286,03	-10,24
286,24	-36,86
286,45	98,30
286,67	45,06
286,88	-26,62
287,10	167,93
287,31	131,07
287,53	26,62
287,74	14,34
287,95	20,48
288,17	-26,62
288,38	-63,49
288,60	14,34
288,81	92,16
289,02	16,38
289,24	-36,86
289,45	-61,44
289,67	32,77
289,88	63,49
290,10	10,24
290,31	-6,14
290,52	0,00
290,74	4,10
290,95	32,77
291,17	6,14
291,38	36,86
291,59	-51,20
291,81	2,05
292,02	34,82
292,24	10,24
292,45	12,29
292,66	-51,20
292,88	-116,73
293,09	-20,48
293,31	81,92
293,52	-16,38
293,73	-4,10
293,95	86,01
294,16	16,38
294,37	-2,05
294,59	26,62
294,80	34,82
295,02	26,62
295,23	-22,53
295,44	-47,10
295,66	-65,53
295,87	-61,44
296,09	49,15
296,30	-14,34
296,51	-28,67
296,73	102,40
296,94	51,20
297,15	-8,19
297,37	-114,69
297,58	-65,53
297,79	-28,67
298,01	43,01
298,22	71,68
298,44	75,77
298,65	-92,16
298,86	-20,48
299,08	-69,63
299,29	-20,48
299,50	100,35
299,72	4,10
299,93	12,29
300,14	26,62
300,36	-88,06
300,57	-49,15
300,79	12,29
301,00	-40,96
301,21	45,06
301,43	-16,38
301,64	-28,67
301,85	-8,19
302,07	-124,93
302,28	96,25
302,49	4,10
302,71	65,53
302,92	81,92
303,13	-38,91
303,35	55,30
303,56	16,38
303,77	104,45
303,99	-38,91
304,20	-28,67
304,41	4,10
304,63	20,48
304,84	61,44
305,05	-90,11
305,27	73,73
305,48	22,53
305,69	-86,01
305,91	83,97
306,12	53,25
306,33	81,92
306,55	-2,05
306,76	40,96
306,97	16,38
307,19	-22,53
307,40	69,63
307,61	114,69
307,82	-24,58
308,04	-4,10
308,25	-49,15
308,46	2,05
308,68	10,24
308,89	-55,30
309,10	-59,39
309,32	-81,92
309,53	-36,86
309,74	55,30
309,96	-83,97
310,17	108,54
310,38	-118,78
310,59	63,49
310,81	-16,38
311,02	34,82
311,23	-2,05
311,45	-32,77
311,66	90,11
311,87	-4,10
312,09	110,59
312,30	18,43
312,51	79,87
312,72	-57,34
312,94	16,38
313,15	18,43
313,36	65,54
313,58	-18,43
313,79	-4,10
314,00	8,19
314,21	-18,43
314,43	65,54
314,64	4,10
314,85	18,43
315,06	88,06
315,28	-30,72
315,49	-65,54
315,70	32,77
315,92	-8,19
316,13	-38,91
316,34	12,29
316,55	-65,53
316,77	14,34
316,98	-8,19
317,19	-12,29
317,40	45,06
317,62	-24,58
317,83	57,34
318,04	-32,77
318,25	2,05
318,47	0,00
318,68	34,82
318,89	63,49
319,11	90,11
319,32	-45,06
319,53	-45,06
319,74	-22,53
319,96	49,15
320,17	10,24
320,38	-90,11
320,59	-12,29
320,81	12,29
321,02	-57,34
321,23	-47,10
321,44	-24,58
321,65	96,25
321,87	-73,73
322,08	-18,43
322,29	-98,30
322,50	122,88
322,72	-20,48
322,93	40,96
323,14	55,30
323,35	-22,53
323,57	-16,38
323,78	47,10
323,99	65,54
324,20	-12,29
324,41	10,24
324,63	28,67
324,84	-51,20
325,05	-88,06
325,26	12,29
325,48	-18,43
325,69	-49,15
325,90	14,34
326,11	83,97
326,32	-30,72
326,54	2,05
326,75	-34,82
326,96	36,86
327,17	45,06
327,39	-51,20
327,60	30,72
327,81	32,77
328,02	-18,43
328,23	24,58
328,45	47,10
328,66	-8,19
328,87	71,68
329,08	-22,53
329,29	-4,10
329,51	-30,72
329,72	-51,20
329,93	75,77
330,14	-24,58
330,35	133,12
330,56	49,15
330,78	24,58
330,99	43,01
331,20	30,72
331,41	32,77
331,62	0,00
331,84	-26,62
332,05	2,05
332,26	40,96
332,47	16,38
332,68	90,11
332,90	-47,10
333,11	30,72
333,32	45,06
333,53	47,10
333,74	-30,72
333,95	-63,49
334,17	10,24
334,38	-34,82
334,59	-22,53
334,80	-57,34
335,01	126,97
335,22	-36,86
335,44	104,45
335,65	-49,15
335,86	24,58
336,07	22,53
336,28	34,82
336,49	28,67
336,71	30,72
336,92	14,34
337,13	-49,15
337,34	-45,06
337,55	22,53
337,76	16,38
337,97	-40,96
338,19	36,86
338,40	67,58
338,61	-24,58
338,82	-16,38
339,03	22,53
339,24	40,96
339,45	83,97
339,67	14,34
339,88	102,40
340,09	45,06
340,30	-4,10
340,51	36,86
340,72	79,87
340,93	55,30
341,15	16,38
341,36	16,38
341,57	-40,96
341,78	65,53
341,99	83,97
342,20	12,29
342,41	45,06
342,62	-49,15
342,84	18,43
343,05	-135,17
343,26	18,43
343,47	-86,01
343,68	-4,10
343,89	2,05
344,10	34,82
344,31	34,82
344,53	-63,49
344,74	-51,20
344,95	77,82
345,16	2,05
345,37	-77,82
345,58	47,10
345,79	-20,48
346,00	28,67
346,21	63,49
346,42	55,30
346,64	2,05
346,85	53,25
347,06	-40,96
347,27	4,10
347,48	122,88
347,69	55,30
347,90	-63,49
348,11	-24,58
348,32	-45,06
348,53	24,58
348,75	83,97
348,96	-2,05
349,17	36,86
349,38	69,63
349,59	106,49
349,80	-4,10
350,01	36,86
350,22	-14,34
350,43	-10,24
350,64	-49,15
350,85	8,19
351,06	10,24
351,28	-47,10
351,49	-34,82
351,70	-2,05
351,91	14,34
352,12	49,15
352,33	16,38
352,54	-6,14
352,75	-73,73
352,96	-40,96
353,17	-12,29
353,38	-63,49
353,59	28,67
353,80	-10,24
354,01	34,82
354,22	-28,67
354,44	53,25
354,65	12,29
354,86	43,01
355,07	12,29
355,28	88,06
355,49	57,34
355,70	-18,43
355,91	51,20
356,12	43,01
356,33	-77,82
356,54	-20,48
356,75	49,15
356,96	-6,14
357,17	14,34
357,38	49,15
357,59	22,53
357,80	-59,39
358,01	-2,05
358,22	20,48
358,43	-4,10
358,64	-8,19
358,85	-49,15
359,07	-49,15
359,28	-92,16
359,49	-4,10
359,70	-45,06
359,91	26,62
360,12	4,10
360,33	8,19
360,54	40,96
360,75	36,86
360,96	0,00
361,17	32,77
361,38	28,67
361,59	118,78
361,80	53,25
362,01	-2,05
362,22	-30,72
362,43	71,68
362,64	-24,58
362,85	-22,53
363,06	10,24
363,27	6,14
363,48	-34,82
363,69	10,24
363,90	-4,10
364,11	26,62
364,32	102,40
364,53	49,15
364,74	163,84
364,95	-47,10
365,16	18,43
365,37	-30,72
365,58	67,58
365,79	-40,96
366,00	-59,39
366,21	67,58
366,42	59,39
366,63	6,14
366,84	-22,53
367,05	100,35
367,26	40,96
367,47	-36,86
367,68	-90,11
367,89	0,00
368,10	73,73
368,31	-53,25
368,52	-12,29
368,73	4,10
368,94	120,83
369,15	-53,25
369,36	-2,05
369,57	-53,25
369,78	69,63
369,99	-4,10
370,20	-6,14
370,40	75,77
370,61	51,20
370,82	4,10
371,03	57,34
371,24	102,40
371,45	49,15
371,66	-28,67
371,87	6,14
372,08	-47,10
372,29	61,44
372,50	8,19
372,71	24,58
372,92	-67,58
373,13	-4,10
373,34	-36,86
373,55	36,86
373,76	47,10
373,97	45,06
374,18	-10,24
374,39	-57,34
374,60	16,38
374,81	-6,14
375,01	45,06
375,22	26,62
375,43	-14,34
375,64	-14,34
375,85	-2,05
376,06	-24,58
376,27	-53,25
376,48	14,34
376,69	-110,59
376,90	34,82
377,11	6,14
377,32	12,29
377,53	-10,24
377,74	79,87
377,94	18,43
378,15	-53,25
378,36	-90,11
378,57	-26,62
378,78	-43,01
378,99	-6,14
379,20	71,68
379,41	-10,24
379,62	53,25
379,83	12,29
380,04	-75,77
380,25	-92,16
380,45	57,34
380,66	6,14
380,87	26,62
381,08	92,16
381,29	-40,96
381,50	-20,48
381,71	24,58
381,92	6,14
382,13	49,15
382,34	28,67
382,55	22,53
382,75	49,15
382,96	18,43
383,17	-2,05
383,38	-38,91
383,59	73,73
383,80	118,78
384,01	24,58
384,22	-83,97
384,43	61,44
384,63	18,43
384,84	-20,48
385,05	75,77
385,26	77,82
385,47	45,06
385,68	24,58
385,89	2,05
386,10	43,01
386,30	26,62
386,51	73,73
386,72	92,16
386,93	2,05
387,14	22,53
387,35	45,06
387,56	-63,49
387,77	-24,58
387,97	-26,62
388,18	-81,92
388,39	-4,10
388,60	-67,58
388,81	-176,13
389,02	2,05
389,23	57,34
389,43	-40,96
389,64	-51,20
389,85	24,58
390,06	22,53
390,27	-57,34
390,48	67,58
390,69	-129,02
390,89	129,02
391,10	18,43
391,31	16,38
391,52	63,49
391,73	-18,43
391,94	12,29
392,14	26,62
392,35	-4,10
392,56	10,24
392,77	-12,29
392,98	-49,15
393,19	-57,34
393,39	24,58
393,60	28,67
393,81	-28,67
394,02	4,10
394,23	-4,10
394,44	12,29
394,64	18,43
394,85	12,29
395,06	10,24
395,27	96,25
395,48	43,01
395,69	-92,16
395,89	30,72
396,10	28,67
396,31	49,15
396,52	0,00
396,73	47,10
396,93	43,01
397,14	24,58
397,35	-22,53
397,56	47,10
397,77	32,77
397,97	28,67
398,18	135,17
398,39	59,39
398,60	20,48
398,81	-8,19
399,01	79,87
399,22	63,49
399,43	-4,10
399,64	73,73
399,85	10,24
400,05	-47,10
400,26	-14,34
400,47	-26,62
400,68	-67,58
400,89	2,05
401,09	43,01
401,30	24,58
401,51	55,30
401,72	-47,10
401,93	-16,38
402,13	-18,43
402,34	-18,43
402,55	-36,86
402,76	-6,14
402,96	-63,49
403,17	32,77
403,38	57,34
403,59	-28,67
403,80	59,39
404,00	51,20
404,21	12,29
404,42	79,87
404,63	-69,63
404,83	65,54
405,04	100,35
405,25	51,20
405,46	43,01
405,66	-20,48
405,87	24,58
406,08	-30,72
406,29	-20,48
406,49	-26,62
406,70	-71,68
406,91	8,19
407,12	-2,05
407,32	12,29
407,53	36,86
407,74	-36,86
407,95	-14,34
408,15	-4,10
408,36	67,58
408,57	-16,38
408,78	-22,53
408,98	-4,10
409,19	-14,34
409,40	34,82
409,61	-63,49
409,81	40,96
410,02	92,16
410,23	61,44
410,44	49,15
410,64	83,97
410,85	65,53
411,06	34,82
411,26	30,72
411,47	2,05
411,68	-92,16
411,89	28,67
412,09	-79,87
412,30	98,30
412,51	-2,05
412,72	40,96
412,92	22,53
413,13	-51,20
413,34	-6,14
413,54	67,58
413,75	102,40
413,96	-20,48
414,17	40,96
414,37	34,82
414,58	61,44
414,79	-18,43
414,99	94,21
415,20	20,48
415,41	6,14
415,61	79,87
415,82	12,29
416,03	-38,91
416,24	65,54
416,44	-45,06
416,65	-4,10
416,86	-4,10
417,06	40,96
417,27	63,49
417,48	-65,54
417,68	22,53
417,89	75,77
418,10	14,34
418,30	45,06
418,51	-114,69
418,72	88,06
418,92	-28,67
419,13	-38,91
419,34	-22,53
419,55	-59,39
419,75	-43,01
419,96	102,40
420,17	-36,86
420,37	36,86
420,58	32,77
420,79	22,53
420,99	-67,58
421,20	-102,40
421,41	49,15
421,61	51,20
421,82	16,38
422,03	71,68
422,23	34,82
422,44	38,91
422,65	12,29
422,85	53,25
423,06	-63,49
423,26	120,83
423,47	43,01
423,68	22,53
423,88	38,91
424,09	81,92
424,30	-36,86
424,50	55,30
424,71	6,14
424,92	-6,14
425,12	-67,58
425,33	-20,48
425,54	22,53
425,74	49,15
425,95	2,05
426,15	-34,82
426,36	8,19
426,57	59,39
426,77	-4,10
426,98	129,02
427,19	-2,05
427,39	2,05
427,60	34,82
427,81	61,44
428,01	-24,58
428,22	-30,72
428,42	-24,58
428,63	8,19
428,84	-22,53
429,04	-86,01
429,25	18,43
429,45	40,96
429,66	-16,38
429,87	-30,72
430,07	20,48
430,28	55,30
430,49	-22,53
430,69	4,10
430,90	-32,77
431,10	-88,06
431,31	-63,49
431,52	-6,14
431,72	-2,05
431,93	116,73
432,13	-16,38
432,34	-12,29
432,55	-40,96
432,75	-12,29
432,96	-40,96
433,16	-4,10
433,37	-79,87
433,58	26,62
433,78	57,34
433,99	45,06
434,19	51,20
434,40	-24,58
434,60	12,29
434,81	18,43
435,02	-8,19
435,22	18,43
435,43	-57,34
435,63	20,48
435,84	38,91
436,05	51,20
436,25	-18,43
436,46	0,00
436,66	94,21
436,87	-36,86
437,07	59,39
437,28	120,83
437,48	61,44
437,69	0,00
437,90	92,16
438,10	36,86
438,31	-81,92
438,51	-14,34
438,72	-63,49
438,92	-22,53
439,13	-20,48
439,34	69,63
439,54	83,97
439,75	-53,25
439,95	16,38
440,16	26,62
440,36	-55,30
440,57	-69,63
440,77	8,19
440,98	20,48
441,18	-118,78
441,39	8,19
441,60	83,97
441,80	-26,62
442,01	-40,96
442,21	-16,38
442,42	86,01
442,62	-6,14
442,83	-63,49
443,03	6,14
443,24	65,54
443,44	-32,77
443,65	-77,82
443,85	-10,24
444,06	16,38
444,26	-86,01
444,47	92,16
444,67	51,20
444,88	32,77
445,09	-63,49
445,29	43,01
445,50	-16,38
445,70	-34,82
445,91	108,54
446,11	65,53
446,32	32,77
446,52	2,05
446,73	20,48
446,93	88,06
447,14	-57,34
447,34	2,05
447,55	-86,01
447,75	-53,25
447,96	20,48
448,16	26,62
448,37	-83,97
448,57	92,16
448,78	-86,01
448,98	45,06
449,19	63,49
449,39	-26,62
449,60	55,30
449,80	0,00
450,01	-16,38
450,21	24,58
450,42	69,63
450,62	-30,72
450,83	22,53
451,03	6,14
451,23	-65,53
451,44	-6,14
451,64	-18,43
451,85	51,20
452,05	-40,96
452,26	14,34
452,46	73,73
452,67	143,36
452,87	88,06
453,08	-67,58
453,28	-28,67
453,49	-4,10
453,69	32,77
453,90	36,86
454,10	-10,24
454,31	-36,86
454,51	-40,96
454,71	18,43
454,92	-6,14
455,12	51,20
455,33	2,05
455,53	6,14
455,74	8,19
455,94	12,29
456,15	-8,19
456,35	-6,14
456,55	141,31
456,76	22,53
456,96	69,63
457,17	-45,06
457,37	28,67
457,58	10,24
457,78	-20,48
457,99	12,29
458,19	81,92
458,39	-57,34
458,60	40,96
458,80	49,15
459,01	-165,89
459,21	32,77
459,42	36,86
459,62	75,77
459,82	43,01
460,03	86,01
460,23	20,48
460,44	-20,48
460,64	71,68
460,85	-10,24
461,05	61,44
461,25	2,05
461,46	-40,96
461,66	49,15
461,87	30,72
462,07	71,68
462,27	26,62
462,48	-8,19
462,68	30,72
462,89	-14,34
463,09	40,96
463,29	-20,48
463,50	-12,29
463,70	-102,40
463,91	-47,10
464,11	-20,48
464,31	16,38
464,52	65,54
464,72	-2,05
464,93	45,06
465,13	38,91
465,33	57,34
465,54	-90,11
465,74	16,38
465,95	51,20
466,15	112,64
466,35	-47,10
466,56	-71,68
466,76	24,58
466,96	8,19
467,17	40,96
467,37	96,25
467,58	22,53
467,78	157,69
467,98	61,44
468,19	6,14
468,39	-57,34
468,59	14,34
468,80	-22,53
469,00	20,48
469,21	14,34
469,41	-57,34
469,61	51,20
469,82	-28,67
470,02	98,30
470,22	32,77
470,43	67,58
470,63	-43,01
470,83	-81,92
471,04	-16,38
471,24	20,48
471,45	-12,29
471,65	-47,10
471,85	40,96
472,06	45,06
472,26	-22,53
472,46	106,49
472,67	-63,49
472,87	-26,62
473,07	22,53
473,28	53,25
473,48	-34,82
473,68	-71,68
473,89	112,64
474,09	-6,14
474,29	-98,30
474,50	-16,38
474,70	-26,62
474,90	65,54
475,11	16,38
475,31	-16,38
475,51	135,17
475,72	-16,38
475,92	40,96
476,12	-55,30
476,33	20,48
476,53	-12,29
476,73	30,72
476,93	90,11
477,14	8,19
477,34	-4,10
477,54	-92,16
477,75	36,86
477,95	38,91
478,15	75,77
478,36	63,49
478,56	4,10
478,76	-16,38
478,97	49,15
479,17	-14,34
479,37	-24,58
479,57	-28,67
479,78	51,20
479,98	38,91
480,18	16,38
480,39	-69,63
480,59	-12,29
480,79	32,77
480,99	4,10
481,20	-49,15
481,40	22,53
481,60	10,24
481,81	-4,10
482,01	-30,72
482,21	73,73
482,41	16,38
482,62	40,96
482,82	-16,38
483,02	38,91
483,23	-69,63
483,43	90,11
483,63	18,43
483,83	16,38
484,04	-20,48
484,24	-6,14
484,44	-6,14
484,64	-61,44
484,85	14,34
485,05	26,62
485,25	4,10
485,45	43,01
485,66	-65,54
485,86	-32,77
486,06	28,67
486,26	10,24
486,47	86,01
486,67	-38,91
486,87	67,58
487,07	28,67
487,28	-118,78
487,48	53,25
487,68	8,19
487,88	100,35
488,09	-26,62
488,29	4,10
488,49	-4,10
488,69	-36,86
488,90	86,01
489,10	-34,82
489,30	-102,40
489,50	-4,10
489,71	116,73
489,91	-43,01
490,11	55,30
490,31	18,43
490,52	-36,86
490,72	-2,05
490,92	-2,05
491,12	-22,53
491,32	-20,48
491,53	98,30
491,73	18,43
491,93	-36,86
492,13	36,86
492,33	-6,14
492,54	-12,29
492,74	30,72
492,94	69,63
493,14	-22,53
493,35	59,39
493,55	126,97
493,75	-38,91
493,95	-10,24
494,15	-36,86
494,36	-26,62
494,56	28,67
494,76	14,34
494,96	-18,43
495,16	-53,25
495,37	6,14
495,57	16,38
495,77	32,77
495,97	124,93
496,17	28,67
496,37	20,48
496,58	8,19
496,78	12,29
496,98	75,77
497,18	153,60
497,38	167,93
497,59	-6,14
497,79	32,77
497,99	69,63
498,19	-28,67
498,39	92,16
498,59	77,82
498,80	18,43
499,00	30,72
499,20	20,48
499,40	49,15
499,60	-18,43
499,80	-51,20
500,01	-22,53
500,21	-16,38
500,41	-61,44
500,61	16,38
500,81	96,25
501,01	102,40
501,22	-4,10
501,42	51,20
501,62	34,82
501,82	77,82
502,02	8,19
502,22	-67,58
502,42	24,58
502,63	-38,91
502,83	-40,96
503,03	-8,19
503,23	-69,63
503,43	88,06
503,63	20,48
503,83	110,59
504,04	-24,58
504,24	-94,21
504,44	45,06
504,64	16,38
504,84	-36,86
505,04	104,45
505,24	18,43
505,44	83,97
505,65	-86,01
505,85	-30,72
506,05	-14,34
506,25	2,05
506,45	49,15
506,65	-6,14
506,85	-73,73
507,05	71,68
507,26	-16,38
507,46	-10,24
507,66	16,38
507,86	26,62
508,06	116,73
508,26	65,54
508,46	81,92
508,66	43,01
508,86	-20,48
509,06	26,62
509,27	-32,77
509,47	-73,73
509,67	2,05
509,87	-43,01
510,07	-4,10
510,27	28,67
510,47	63,49
510,67	34,82
510,87	0,00
511,07	-12,29
511,28	-32,77
511,48	55,30
511,68	45,06
511,88	4,10
512,08	26,62
512,28	45,06
512,48	-2,05
512,68	49,15
512,88	98,30
513,08	40,96
513,28	157,69
513,48	22,53
513,68	47,10
513,89	38,91
514,09	49,15
514,29	36,86
514,49	90,11
514,69	12,29
514,89	22,53
515,09	47,10
515,29	63,49
515,49	26,62
515,69	-24,58
515,89	-22,53
516,09	69,63
516,29	-34,82
516,49	-20,48
516,69	-2,05
516,89	26,62
517,09	38,91
517,29	59,39
517,50	57,34
517,70	100,35
517,90	-73,73
518,10	-2,05
518,30	30,72
518,50	2,05
518,70	30,72
518,90	59,39
519,10	-4,10
519,30	77,82
519,50	-40,96
519,70	-18,43
519,90	-34,82
520,10	-34,82
520,30	112,64
520,50	51,20
520,70	-24,58
520,90	10,24
521,10	-32,77
521,30	-53,25
521,50	67,58
521,70	67,58
521,90	-6,14
522,10	65,54
522,30	-12,29
522,50	38,91
522,70	-28,67
522,90	-16,38
523,10	12,29
523,30	-6,14
523,50	2,05
523,70	53,25
523,90	-83,97
524,10	-2,05
524,30	55,30
524,50	30,72
524,70	30,72
524,90	-22,53
525,10	12,29
525,30	-8,19
525,50	73,73
525,70	108,54
525,90	18,43
526,10	8,19
526,30	36,86
526,50	6,14
526,70	65,53
526,90	-6,14
527,10	47,10
527,30	-32,77
527,50	32,77
527,70	51,20
527,90	-16,38
528,10	-34,82
528,30	-83,97
528,50	2,05
528,70	16,38
528,90	36,86
529,10	24,58
529,30	-83,97
529,50	-18,43
529,70	-12,29
529,90	-10,24
530,10	-4,10
530,29	69,63
530,49	-16,38
530,69	57,34
530,89	2,05
531,09	-24,58
531,29	-16,38
531,49	14,34
531,69	26,62
531,89	-88,06
532,09	98,30
532,29	51,20
532,49	16,38
532,69	10,24
532,89	-30,72
533,09	-36,86
533,29	59,39
533,49	20,48
533,68	49,15
533,88	14,34
534,08	-47,10
534,28	71,68
534,48	8,19
534,68	-14,34
534,88	30,72
535,08	59,39
535,28	-51,20
535,48	63,49
535,68	30,72
535,88	55,30
536,08	-18,43
536,27	18,43
536,47	-30,72
536,67	-4,10
536,87	75,77
537,07	18,43
537,27	-53,25
537,47	47,10
537,67	-12,29
537,87	83,97
538,07	4,10
538,27	61,44
538,46	-38,91
538,66	16,38
538,86	-69,63
539,06	-28,67
539,26	12,29
539,46	-34,82
539,66	53,25
539,86	-12,29
540,06	10,24
540,25	47,10
540,45	-6,14
540,65	28,67
540,85	-45,06
541,05	28,67
541,25	18,43
541,45	8,19
541,65	40,96
541,85	22,53
542,04	104,45
542,24	34,82
542,44	8,19
542,64	106,49
542,84	55,30
543,04	26,62
543,24	88,06
543,43	65,54
543,63	-57,34
543,83	65,54
544,03	57,34
544,23	-67,58
544,43	0,00
544,63	-2,05
544,82	-16,38
545,02	-71,68
545,22	6,14
545,42	63,49
545,62	53,25
545,82	6,14
546,02	43,01
546,21	-34,82
546,41	28,67
546,61	77,82
546,81	-28,67
547,01	-34,82
547,21	-10,24
547,40	94,21
547,60	-65,53
547,80	75,77
548,00	-47,10
548,20	-73,73
548,40	51,20
548,59	45,06
548,79	-6,14
548,99	63,49
549,19	-14,34
549,39	38,91
549,59	112,64
549,78	36,86
549,98	18,43
550,18	-22,53
550,38	10,24
550,58	-2,05
550,77	51,20
550,97	4,10
551,17	10,24
551,37	-38,91
551,57	-4,10
551,76	-86,01
551,96	57,34
552,16	75,77
552,36	30,72
552,56	59,39
552,75	10,24
552,95	-12,29
553,15	43,01
553,35	40,96
553,55	24,58
553,74	-57,34
553,94	47,10
554,14	-20,48
554,34	63,49
554,54	69,63
554,73	-4,10
554,93	57,34
555,13	45,06
555,33	81,92
555,53	49,15
555,72	20,48
555,92	63,49
556,12	10,24
556,32	-57,34
556,51	-65,53
556,71	-65,54
556,91	12,29
557,11	129,02
557,30	-4,10
557,50	-30,72
557,70	122,88
557,90	-14,34
558,10	45,06
558,29	40,96
558,49	-43,01
558,69	-38,91
558,89	86,01
559,08	-32,77
559,28	-24,58
559,48	69,63
559,68	22,53
559,87	118,78
560,07	32,77
560,27	49,15
560,47	6,14
560,66	32,77
560,86	-14,34
561,06	-12,29
561,25	-22,53
561,45	8,19
561,65	45,06
561,85	63,49
562,04	55,30
562,24	-73,73
562,44	65,53
562,64	88,06
562,83	83,97
563,03	8,19
563,23	45,06
563,42	-20,48
563,62	118,78
563,82	22,53
564,02	102,40
564,21	-12,29
564,41	-28,67
564,61	40,96
564,80	36,86
565,00	30,72
565,20	-2,05
565,40	0,00
565,59	49,15
565,79	26,62
565,99	30,72
566,18	36,86
566,38	12,29
566,58	106,49
566,78	155,65
566,97	194,56
567,17	239,61
567,37	256,00
567,56	241,66
567,76	276,48
567,96	419,83
568,15	311,29
568,35	356,35
568,55	376,83
568,74	331,77
568,94	339,96
569,14	296,96
569,33	200,70
569,53	272,38
569,73	198,65
569,92	172,03
570,12	145,41
570,32	69,63
570,52	198,65
570,71	-38,91
570,91	34,82
571,11	6,14
571,30	81,92
571,50	8,19
571,70	149,50
571,89	104,45
572,09	8,19
572,28	-34,82
572,48	69,63
572,68	61,44
572,87	-4,10
573,07	20,48
573,27	24,58
573,46	108,54
573,66	65,53
573,86	26,62
574,05	157,69
574,25	32,77
574,45	-45,06
574,64	-45,06
574,84	57,34
575,04	20,48
575,23	40,96
575,43	90,11
575,62	16,38
575,82	108,54
576,02	14,34
576,21	77,82
576,41	16,38
576,61	73,73
576,80	38,91
577,00	73,73
577,19	69,63
577,39	-20,48
577,59	126,97
577,78	96,25
577,98	133,12
578,18	53,25
578,37	-6,14
578,57	18,43
578,76	65,54
578,96	67,58
579,16	12,29
579,35	83,97
579,55	96,25
579,74	59,39
579,94	45,06
580,14	22,53
580,33	96,25
580,53	86,01
580,72	143,36
580,92	135,17
581,12	110,59
581,31	59,39
581,51	241,66
581,70	106,49
581,90	133,12
582,10	86,01
582,29	110,59
582,49	174,08
582,68	116,73
582,88	137,21
583,07	159,74
583,27	221,18
583,47	102,40
583,66	34,82
583,86	182,27
584,05	258,04
584,25	86,01
584,44	202,75
584,64	294,91
584,84	247,80
585,03	102,40
585,23	301,05
585,42	266,24
585,62	163,84
585,81	303,10
586,01	262,14
586,20	387,07
586,40	288,76
586,60	509,94
586,79	628,73
586,99	1122,29
587,18	2756,57
587,38	6150,05
587,57	10297,19
587,77	14698,27
587,96	21814,96
588,16	28784,20
588,35	34014,71
588,55	37957,05
588,75	40922,51
588,94	41057,68
589,14	39210,41
589,33	37275,08
589,53	34162,17
589,72	29175,36
589,92	25704,06
590,11	21085,89
590,31	16963,33
590,50	13346,61
590,70	9975,66
590,89	7286,67
591,09	5083,06
591,28	3563,47
591,48	2416,60
591,67	1720,29
591,87	1304,56
592,06	1101,81
592,26	774,13
592,45	610,29
592,65	489,46
592,84	448,51
593,04	333,82
593,23	358,39
593,43	344,06
593,62	337,91
593,82	215,04
594,01	321,53
594,21	253,95
594,40	188,41
594,60	301,05
594,79	167,93
594,99	215,04
595,18	36,86
595,38	122,88
595,57	98,30
595,77	161,79
595,96	217,08
596,16	147,45
596,35	151,55
596,55	174,08
596,74	67,58
596,94	249,85
597,13	106,49
597,33	114,69
597,52	190,46
597,72	98,30
597,91	139,26
598,11	28,67
598,30	143,36
598,50	167,93
598,69	83,97
598,88	129,02
599,08	133,12
599,27	-8,19
599,47	-20,48
599,66	116,73
599,86	114,69
600,05	100,35
600,25	-22,53
600,44	110,59
600,64	45,06
600,83	126,97
601,02	51,20
601,22	147,45
601,41	63,49
601,61	40,96
601,80	67,58
602,00	104,45
602,19	100,35
602,38	43,01
602,58	67,58
602,77	-20,48
602,97	114,69
603,16	102,40
603,36	49,15
603,55	55,30
603,74	-18,43
603,94	-6,14
604,13	-24,58
604,33	-30,72
604,52	-14,34
604,72	83,97
604,91	67,58
605,10	59,39
605,30	-22,53
605,49	14,34
605,69	120,83
605,88	102,40
606,07	73,73
606,27	143,36
606,46	110,59
606,66	73,73
606,85	10,24
607,04	149,50
607,24	30,72
607,43	-14,34
607,63	96,25
607,82	-4,10
608,01	-8,19
608,21	34,82
608,40	28,67
608,60	-22,53
608,79	-6,14
608,98	149,50
609,18	8,19
609,37	28,67
609,57	43,01
609,76	112,64
609,95	55,30
610,15	59,39
610,34	157,69
610,53	94,21
610,73	67,58
610,92	-30,72
611,11	129,02
611,31	-51,20
611,50	4,10
611,70	59,39
611,89	40,96
612,08	102,40
612,28	108,54
612,47	53,25
612,66	10,24
612,86	34,82
613,05	149,50
613,24	-2,05
613,44	116,73
613,63	10,24
613,82	-24,58
614,02	86,01
614,21	55,30
614,41	106,49
614,60	65,54
614,79	92,16
614,99	124,93
615,18	145,41
615,37	98,30
615,57	122,88
615,76	145,41
615,95	94,21
616,15	110,59
616,34	178,17
616,53	75,77
616,73	102,40
616,92	86,01
617,11	49,15
617,30	71,68
617,50	38,91
617,69	6,14
617,88	108,54
618,08	16,38
618,27	47,10
618,46	12,29
618,66	61,44
618,85	12,29
619,04	102,40
619,24	-18,43
619,43	-22,53
619,62	59,39
619,82	59,39
620,01	51,20
620,20	-16,38
620,39	34,82
620,59	83,97
620,78	8,19
620,97	30,72
621,17	-24,58
621,36	182,27
621,55	141,31
621,74	43,01
621,94	43,01
622,13	-45,06
622,32	-8,19
622,52	-4,10
622,71	92,16
622,90	-49,15
623,09	8,19
623,29	-12,29
623,48	-4,10
623,67	-94,21
623,86	-49,15
624,06	22,53
624,25	-12,29
624,44	-10,24
624,64	-2,05
624,83	59,39
625,02	69,63
625,21	-28,67
625,41	-36,86
625,60	32,77
625,79	-22,53
625,98	-30,72
626,18	53,25
626,37	38,91
626,56	-8,19
626,75	-8,19
626,95	-40,96
627,14	32,77
627,33	32,77
627,52	100,35
627,72	-22,53
627,91	45,06
628,10	-34,82
628,29	-40,96
628,49	20,48
628,68	49,15
628,87	0,00
629,06	-10,24
629,25	12,29
629,45	59,39
629,64	45,06
629,83	61,44
630,02	102,40
630,22	59,39
630,41	-34,82
630,60	-22,53
630,79	65,54
630,98	26,62
631,18	53,25
631,37	63,49
631,56	-51,20
631,75	32,77
631,94	0,00
632,14	51,20
632,33	-59,39
632,52	24,58
632,71	75,77
632,90	38,91
633,10	-14,34
633,29	96,25
633,48	-34,82
633,67	32,77
633,86	98,30
634,06	69,63
634,25	67,58
634,44	55,30
634,63	126,97
634,82	108,54
635,02	59,39
635,21	51,20
635,40	-8,19
635,59	-14,34
635,78	24,58
635,97	-88,06
636,17	65,53
636,36	38,91
636,55	65,53
636,74	10,24
636,93	-98,30
637,12	-8,19
637,32	-69,63
637,51	4,10
637,70	-12,29
637,89	108,54
638,08	55,30
638,27	-24,58
638,47	6,14
638,66	-49,15
638,85	32,77
639,04	-65,54
639,23	20,48
639,42	18,43
639,62	30,72
639,81	14,34
640,00	36,86
640,19	67,58
640,38	-20,48
640,57	14,34
640,76	-4,10
640,95	102,40
641,15	-10,24
641,34	-36,86
641,53	16,38
641,72	51,20
641,91	22,53
642,10	-36,86
642,29	53,25
642,49	-53,25
642,68	67,58
642,87	8,19
643,06	92,16
643,25	0,00
643,44	26,62
643,63	51,20
643,82	53,25
644,01	-88,06
644,21	38,91
644,40	-2,05
644,59	100,35
644,78	83,97
644,97	-28,67
645,16	-32,77
645,35	24,58
645,54	32,77
645,73	28,67
645,92	38,91
646,12	53,25
646,31	16,38
646,50	-14,34
646,69	-12,29
646,88	10,24
647,07	14,34
647,26	36,86
647,45	-65,53
647,64	53,25
647,83	-4,10
648,02	-73,73
648,22	79,87
648,41	-30,72
648,60	6,14
648,79	77,82
648,98	69,63
649,17	49,15
649,36	30,72
649,55	-79,87
649,74	-51,20
649,93	26,62
650,12	-71,68
650,31	28,67
650,50	49,15
650,69	86,01
650,88	55,30
651,08	51,20
651,27	40,96
651,46	26,62
651,65	-83,97
651,84	53,25
652,03	6,14
652,22	36,86
652,41	75,77
652,60	-22,53
652,79	69,63
652,98	47,10
653,17	59,39
653,36	2,05
653,55	71,68
653,74	57,34
653,93	4,10
654,12	104,45
654,31	28,67
654,50	69,63
654,69	79,87
654,88	67,58
655,07	-22,53
655,26	38,91
655,45	45,06
655,64	0,00
655,83	-22,53
656,02	114,69
656,21	106,49
656,40	79,87
656,59	75,77
656,78	-24,58
656,97	47,10
657,17	36,86
657,36	30,72
657,55	-6,14
657,74	112,64
657,93	-47,10
658,12	-67,58
658,31	-12,29
658,50	40,96
658,69	2,05
658,87	61,44
659,06	-83,97
659,25	-53,25
659,44	-55,30
659,63	65,54
659,82	-20,48
660,01	-22,53
660,20	40,96
660,39	24,58
660,58	16,38
660,77	81,92
660,96	-4,10
661,15	59,39
661,34	-49,15
661,53	-45,06
661,72	122,88
661,91	20,48
662,10	10,24
662,29	0,00
662,48	-55,30
662,67	90,11
662,86	-51,20
663,05	-83,97
663,24	-28,67
663,43	-10,24
663,62	-38,91
663,81	-10,24
664,00	30,72
664,19	14,34
664,38	-20,48
664,57	69,63
664,76	-16,38
664,94	-14,34
665,13	45,06
665,32	0,00
665,51	26,62
665,70	-24,58
665,89	8,19
666,08	-30,72
666,27	55,30
666,46	-49,15
666,65	43,01
666,84	53,25
667,03	8,19
667,22	145,41
667,41	57,34
667,60	-16,38
667,78	4,10
667,97	-22,53
668,16	-112,64
668,35	32,77
668,54	-22,53
668,73	45,06
668,92	24,58
669,11	0,00
669,30	20,48
669,49	38,91
669,68	-32,77
669,86	81,92
670,05	8,19
670,24	0,00
670,43	-49,15
670,62	-47,10
670,81	55,30
671,00	16,38
671,19	24,58
671,38	-16,38
671,57	-10,24
671,75	36,86
671,94	45,06
672,13	116,73
672,32	-6,14
672,51	163,84
672,70	-22,53
672,89	-20,48
673,08	53,25
673,26	-10,24
673,45	-30,72
673,64	57,34
673,83	61,44
674,02	-100,35
674,21	16,38
674,40	-26,62
674,59	-81,92
674,77	28,67
674,96	-57,34
675,15	92,16
675,34	40,96
675,53	24,58
675,72	26,62
675,91	51,20
676,09	-40,96
676,28	32,77
676,47	-28,67
676,66	28,67
676,85	-4,10
677,04	-114,69
677,22	79,87
677,41	55,30
677,60	-32,77
677,79	26,62
677,98	18,43
678,17	122,88
678,36	49,15
678,54	53,25
678,73	4,10
678,92	-10,24
679,11	0,00
679,30	2,05
679,48	-32,77
679,67	16,38
679,86	-53,25
680,05	8,19
680,24	-28,67
680,43	16,38
680,61	-18,43
680,80	4,10
680,99	106,49
681,18	10,24
681,37	-65,53
681,55	-36,86
681,74	-8,19
681,93	12,29
682,12	-20,48
682,31	4,10
682,49	24,58
682,68	-88,06
682,87	63,49
683,06	53,25
683,25	38,91
683,43	-40,96
683,62	16,38
683,81	28,67
684,00	-38,91
684,19	40,96
684,37	30,72
684,56	90,11
684,75	-16,38
684,94	-90,11
685,12	6,14
685,31	-24,58
685,50	26,62
685,69	63,49
685,88	22,53
686,06	-26,62
686,25	18,43
686,44	-61,44
686,63	32,77
686,81	14,34
687,00	73,73
687,19	2,05
687,38	-6,14
687,56	32,77
687,75	65,54
687,94	4,10
688,13	26,62
688,31	92,16
688,50	57,34
688,69	28,67
688,88	169,98
689,06	-40,96
689,25	16,38
689,44	83,97
689,63	-22,53
689,81	-16,38
690,00	2,05
690,19	-51,20
690,38	16,38
690,56	-83,97
690,75	94,21
690,94	38,91
691,13	32,77
691,31	-55,30
691,50	-14,34
691,69	51,20
691,87	112,64
692,06	49,15
692,25	-81,92
692,44	-36,86
692,62	12,29
692,81	-79,87
693,00	-24,58
693,18	-49,15
693,37	10,24
693,56	2,05
693,75	14,34
693,93	43,01
694,12	61,44
694,31	-51,20
694,49	-61,44
694,68	-40,96
694,87	47,10
695,05	51,20
695,24	61,44
695,43	26,62
695,62	40,96
695,80	-88,06
695,99	-24,58
696,18	81,92
696,36	36,86
696,55	47,10
696,74	55,30
696,92	43,01
697,11	-71,68
697,30	28,67
697,48	18,43
697,67	92,16
697,86	102,40
698,04	-32,77
698,23	14,34
698,42	94,21
698,60	-124,93
698,79	40,96
698,98	2,05
699,16	-12,29
699,35	6,14
699,54	-22,53
699,72	86,01
699,91	63,49
700,10	-32,77
700,28	-2,05
700,47	-26,62
700,66	32,77
700,84	0,00
701,03	20,48
701,21	-40,96
701,40	2,05
701,59	45,06
701,77	104,45
701,96	-30,72
702,15	-73,73
702,33	12,29
702,52	161,79
702,71	20,48
702,89	47,10
703,08	4,10
703,26	43,01
703,45	49,15
703,64	51,20
703,82	-43,01
704,01	26,62
704,20	-14,34
704,38	55,30
704,57	-26,62
704,75	137,21
704,94	-30,72
705,13	22,53
705,31	-16,38
705,50	28,67
705,68	2,05
705,87	-49,15
706,06	83,97
706,24	147,45
706,43	-49,15
706,61	0,00
706,80	45,06
706,99	57,34
707,17	57,34
707,36	-10,24
707,54	-18,43
707,73	8,19
707,92	-90,11
708,10	-26,62
708,29	22,53
708,47	20,48
708,66	20,48
708,84	-86,01
709,03	63,49
709,22	-18,43
709,40	-18,43
709,59	32,77
709,77	-8,19
709,96	55,30
710,14	-32,77
710,33	22,53
710,52	-2,05
710,70	6,14
710,89	-28,67
711,07	-14,34
711,26	-71,68
711,44	-4,10
711,63	83,97
711,81	-10,24
712,00	-10,24
712,19	-36,86
712,37	32,77
712,56	20,48
712,74	14,34
712,93	-22,53
713,11	8,19
713,30	-8,19
713,48	24,58
713,67	30,72
713,85	51,20
714,04	67,58
714,22	-2,05
714,41	79,87
714,59	-67,58
714,78	-57,34
714,97	-32,77
715,15	-16,38
715,34	40,96
715,52	94,21
715,71	77,82
715,89	49,15
716,08	45,06
716,26	-18,43
716,45	100,35
716,63	55,30
716,82	12,29
717,00	104,45
717,19	8,19
717,37	65,53
717,56	16,38
717,74	100,35
717,93	18,43
718,11	63,49
718,30	43,01
718,48	79,87
718,67	79,87
718,85	12,29
719,04	47,10
719,22	34,82
719,41	45,06
719,59	26,62
719,78	-55,30
719,96	-12,29
720,15	12,29
720,33	43,01
720,52	-79,87
720,70	30,72
720,88	-4,10
721,07	-6,14
721,25	-77,82
721,44	92,16
721,62	-30,72
721,81	24,58
721,99	14,34
722,18	65,53
722,36	-24,58
722,55	43,01
722,73	65,54
722,92	22,53
723,10	4,10
723,28	-49,15
723,47	122,88
723,65	20,48
723,84	-24,58
724,02	24,58
724,21	73,73
724,39	-28,67
724,58	75,77
724,76	-18,43
724,94	-8,19
725,13	-24,58
725,31	28,67
725,50	69,63
725,68	73,73
725,87	40,96
726,05	-63,49
726,23	-43,01
726,42	-59,39
726,60	49,15
726,79	-55,30
726,97	126,97
727,16	-71,68
727,34	20,48
727,52	49,15
727,71	40,96
727,89	98,30
728,08	88,06
728,26	-114,69
728,44	-4,10
728,63	20,48
728,81	49,15
729,00	-36,86
729,18	2,05
729,36	-10,24
729,55	94,21
729,73	-47,10
729,92	22,53
730,10	34,82
730,28	18,43
730,47	22,53
730,65	8,19
730,84	-14,34
731,02	-22,53
731,20	34,82
731,39	18,43
731,57	24,58
731,75	-32,77
731,94	-8,19
732,12	-10,24
732,31	16,38
732,49	4,10
732,67	20,48
732,86	-77,82
733,04	-20,48
733,22	12,29
733,41	-51,20
733,59	-12,29
733,78	-40,96
733,96	16,38
734,14	-53,25
734,33	2,05
734,51	-53,25
734,69	-24,58
734,88	-43,01
735,06	83,97
735,24	-36,86
735,43	-12,29
735,61	65,53
735,79	-36,86
735,98	75,77
736,16	-12,29
736,34	40,96
736,53	8,19
736,71	79,87
736,89	-26,62
737,08	40,96
737,26	2,05
737,44	-8,19
737,63	135,17
737,81	-28,67
737,99	30,72
738,18	28,67
738,36	45,06
738,54	61,44
738,73	94,21
738,91	-4,10
739,09	-98,30
739,28	-77,82
739,46	-55,30
739,64	-73,73
739,82	-22,53
740,01	55,30
740,19	36,86
740,37	43,01
740,56	53,25
740,74	2,05
740,92	-71,68
741,11	-4,10
741,29	28,67
741,47	-47,10
741,65	16,38
741,84	47,10
742,02	-6,14
742,20	2,05
742,39	14,34
742,57	34,82
742,75	88,06
742,93	28,67
743,12	-18,43
743,30	22,53
743,48	51,20
743,67	6,14
743,85	18,43
744,03	-6,14
744,21	18,43
744,40	-6,14
744,58	-59,39
744,76	-32,77
744,94	-77,82
745,13	-2,05
745,31	71,68
745,49	18,43
745,67	-71,68
745,86	-69,63
746,04	-30,72
746,22	75,77
746,40	71,68
746,59	49,15
746,77	16,38
746,95	120,83
747,13	53,25
747,32	-45,06
747,50	96,25
747,68	75,77
747,86	-47,10
748,05	6,14
748,23	18,43
748,41	-67,58
748,59	-16,38
748,77	-73,73
748,96	-55,30
749,14	-30,72
749,32	47,10
749,50	-92,16
749,69	83,97
749,87	34,82
750,05	47,10
750,23	63,49
750,41	81,92
750,60	4,10
750,78	-18,43
750,96	67,58
751,14	-36,86
751,32	-34,82
751,51	51,20
751,69	36,86
751,87	-106,49
752,05	18,43
752,23	59,39
752,42	53,25
752,60	34,82
752,78	92,16
752,96	0,00
753,14	75,77
753,33	14,34
753,51	-18,43
753,69	6,14
753,87	145,41
754,05	-65,54
754,23	67,58
754,42	6,14
754,60	-118,78
754,78	22,53
754,96	-10,24
755,14	28,67
755,32	18,43
755,51	83,97
755,69	-8,19
755,87	14,34
756,05	-32,77
756,23	49,15
756,41	18,43
756,60	-30,72
756,78	69,63
756,96	-22,53
757,14	8,19
757,32	-34,82
757,50	28,67
757,68	55,30
757,87	10,24
758,05	34,82
758,23	-104,45
758,41	-8,19
758,59	-20,48
758,77	-36,86
758,95	55,30
759,14	2,05
759,32	53,25
759,50	30,72
759,68	75,77
759,86	-61,44
760,04	43,01
760,22	26,62
760,40	-20,48
760,59	-14,34
760,77	18,43
760,95	-2,05
761,13	34,82
761,31	-30,72
761,49	16,38
761,67	26,62
761,85	-32,77
762,03	18,43
762,22	20,48
762,40	49,15
762,58	180,22
762,76	174,08
762,94	102,40
763,12	71,68
763,30	155,65
763,48	151,55
763,66	141,31
763,84	53,25
764,02	94,21
764,21	180,22
764,39	34,82
764,57	43,01
764,75	75,77
764,93	-49,15
765,11	169,98
765,29	79,87
765,47	-28,67
765,65	67,58
765,83	16,38
766,01	45,06
766,19	161,79
766,37	94,21
766,56	133,12
766,74	36,86
766,92	120,83
767,10	32,77
767,28	16,38
767,46	53,25
767,64	59,39
767,82	57,34
768,00	81,92
768,18	0,00
768,36	6,14
768,54	-20,48
768,72	77,82
768,90	-30,72
769,08	81,92
769,26	141,31
769,44	47,10
769,62	61,44
769,80	79,87
769,98	8,19
770,16	-14,34
770,34	0,00
770,52	-49,15
770,71	10,24
770,89	75,77
771,07	65,54
771,25	110,59
771,43	73,73
771,61	-49,15
771,79	145,41
771,97	131,07
772,15	-2,05
772,33	114,69
772,51	10,24
772,69	38,91
772,87	63,49
773,05	73,73
773,23	-8,19
773,41	6,14
773,59	-4,10
773,77	24,58
773,95	-30,72
774,13	53,25
774,31	10,24
774,49	38,91
774,67	45,06
774,85	98,30
775,03	-57,34
775,21	-16,38
775,39	-8,19
775,57	-36,86
775,75	16,38
775,93	53,25
776,10	94,21
776,28	20,48
776,46	24,58
776,64	-86,01
776,82	-10,24
777,00	-16,38
777,18	67,58
777,36	-16,38
777,54	55,30
777,72	10,24
777,90	-67,58
778,08	45,06
778,26	32,77
778,44	-12,29
778,62	102,40
778,80	-51,20
778,98	-18,43
779,16	24,58
779,34	81,92
779,52	-28,67
779,70	92,16
779,88	-34,82
780,05	26,62
780,23	-8,19
780,41	2,05
780,59	22,53
780,77	-24,58
780,95	14,34
781,13	-92,16
781,31	-75,77
781,49	71,68
781,67	65,53
781,85	-12,29
782,03	-55,30
782,21	-55,30
782,39	-20,48
782,56	-22,53
782,74	65,53
782,92	28,67
783,10	-45,06
783,28	-73,73
783,46	32,77
783,64	34,82
783,82	28,67
784,00	-30,72
784,18	18,43
784,35	-83,97
784,53	26,62
784,71	10,24
784,89	49,15
785,07	14,34
785,25	2,05
785,43	8,19
785,61	51,20
785,79	-32,77
785,96	-96,25
786,14	26,62
786,32	-4,10
786,50	-10,24
786,68	-14,34
786,86	-2,05
787,04	-16,38
787,22	45,06
787,39	-8,19
787,57	16,38
787,75	0,00
787,93	8,19
788,11	116,73
788,29	-45,06
788,47	-12,29
788,65	22,53
788,82	-43,01
789,00	-59,39
789,18	-47,10
789,36	-8,19
789,54	59,39
789,72	-4,10
789,89	-22,53
790,07	-53,25
790,25	108,54
790,43	-53,25
790,61	40,96
790,79	38,91
790,96	-36,86
791,14	36,86
791,32	-34,82
791,50	73,73
791,68	-40,96
791,86	34,82
792,03	10,24
792,21	-2,05
792,39	-2,05
792,57	28,67
792,75	71,68
792,93	-65,54
793,10	59,39
793,28	24,58
793,46	-96,25
793,64	2,05
793,82	-2,05
793,99	-36,86
794,17	-2,05
794,35	22,53
794,53	96,25
794,71	61,44
794,88	71,68
795,06	-32,77
795,24	77,82
795,42	149,50
795,60	-14,34
795,77	40,96
795,95	4,10
796,13	-94,21
796,31	2,05
796,49	-12,29
796,66	16,38
796,84	30,72
797,02	65,54
797,20	14,34
797,37	-4,10
797,55	30,72
797,73	86,01
797,91	8,19
798,08	0,00
798,26	16,38
798,44	18,43
798,62	102,40
798,80	63,49
798,97	69,63
799,15	-45,06
799,33	-73,73
799,51	26,62
799,68	12,29
799,86	-10,24
800,04	67,58
800,22	94,21
800,39	6,14
800,57	92,16
800,75	14,34
800,93	18,43
801,10	43,01
801,28	40,96
801,46	65,53
801,63	-22,53
801,81	45,06
801,99	53,25
802,17	61,44
802,34	51,20
802,52	104,45
802,70	14,34
802,88	24,58
803,05	10,24
803,23	-106,49
803,41	118,78
803,58	-28,67
803,76	-51,20
803,94	34,82
804,12	-36,86
804,29	88,06
804,47	49,15
804,65	-49,15
804,82	16,38
805,00	-22,53
805,18	18,43
805,35	18,43
805,53	28,67
805,71	10,24
805,89	129,02
806,06	-16,38
806,24	-51,20
806,42	8,19
806,59	18,43
806,77	-26,62
806,95	8,19
807,12	-38,91
807,30	-22,53
807,48	-43,01
807,65	114,69
807,83	-90,11
808,01	-28,67
808,18	-22,53
808,36	-8,19
808,54	6,14
808,71	118,78
808,89	16,38
809,07	28,67
809,24	51,20
809,42	43,01
809,60	-28,67
809,77	49,15
809,95	69,63
810,13	18,43
810,30	118,78
810,48	55,30
810,66	98,30
810,83	24,58
811,01	6,14
811,18	126,97
811,36	81,92
811,54	38,91
811,71	75,77
811,89	110,59
812,07	83,97
812,24	49,15
812,42	69,63
812,59	47,10
812,77	22,53
812,95	-14,34
813,12	0,00
813,30	65,54
813,48	36,86
813,65	129,02
813,83	38,91
814,00	2,05
814,18	124,93
814,36	0,00
814,53	-10,24
814,71	20,48
814,88	-6,14
815,06	2,05
815,24	53,25
815,41	-10,24
815,59	69,63
815,76	51,20
815,94	8,19
816,12	92,16
816,29	24,58
816,47	161,79
816,64	75,77
816,82	71,68
817,00	65,54
817,17	147,45
817,35	354,30
817,52	294,91
817,70	266,24
817,87	438,27
818,05	344,06
818,23	526,33
818,40	499,70
818,58	479,22
818,75	598,01
818,93	626,68
819,10	622,58
819,28	473,08
819,46	468,98
819,63	477,18
819,81	413,69
819,98	411,64
820,16	395,26
820,33	378,87
820,51	319,48
820,68	309,24
820,86	290,81
821,03	235,52
821,21	231,42
821,39	286,72
821,56	243,71
821,74	145,41
821,91	114,69
822,09	104,45
822,26	71,68
822,44	104,45
822,61	100,35
822,79	32,77
822,96	98,30
823,14	59,39
823,31	65,54
823,49	-4,10
823,66	-22,53
823,84	-26,62
824,01	-18,43
824,19	6,14
824,36	-40,96
824,54	49,15
824,71	22,53
824,89	-57,34
825,06	40,96
825,24	63,49
825,41	71,68
825,59	12,29
825,76	-32,77
825,94	-75,77
826,11	57,34
826,29	12,29
826,46	-65,54
826,64	34,82
826,81	49,15
826,99	-90,11
827,16	38,91
827,34	77,82
827,51	-2,05
827,69	-10,24
827,86	106,49
828,04	137,21
828,21	229,37
828,39	-22,53
828,56	73,73
828,74	18,43
828,91	8,19
829,09	8,19
829,26	-43,01
829,43	12,29
829,61	51,20
829,78	-10,24
829,96	38,91
830,13	16,38
830,31	4,10
830,48	45,06
830,66	-24,58
830,83	14,34
831,01	10,24
831,18	65,54
831,35	-38,91
831,53	2,05
831,70	106,49
831,88	-45,06
832,05	49,15
832,23	-43,01
832,40	-12,29
832,57	34,82
832,75	38,91
832,92	12,29
833,10	-8,19
833,27	8,19
833,45	-2,05
833,62	8,19
833,79	36,86
833,97	4,10
834,14	51,20
834,32	32,77
834,49	169,98
834,66	40,96
834,84	30,72
835,01	-45,06
835,19	20,48
835,36	26,62
835,53	73,73
835,71	14,34
835,88	-24,58
836,06	-2,05
836,23	12,29
836,40	45,06
836,58	75,77
836,75	-6,14
836,93	-20,48
837,10	-36,86
837,27	61,44
837,45	2,05
837,62	18,43
837,79	-2,05
837,97	49,15
838,14	45,06
838,32	102,40
838,49	24,58
838,66	18,43
838,84	-47,10
839,01	-57,34
839,18	94,21
839,36	86,01
839,53	-4,10
839,70	32,77
839,88	88,06
840,05	69,63
840,23	0,00
840,40	18,43
840,57	-12,29
840,75	32,77
840,92	-47,10
841,09	-47,10
841,27	-2,05
841,44	51,20
841,61	49,15
841,79	-2,05
841,96	77,82
842,13	88,06
842,31	32,77
842,48	38,91
842,65	0,00
842,83	81,92
843,00	4,10
843,17	57,34
843,35	118,78
843,52	61,44
843,69	12,29
843,86	16,38
844,04	-6,14
844,21	110,59
844,38	16,38
844,56	32,77
844,73	36,86
844,90	32,77
845,08	26,62
845,25	-38,91
845,42	-77,82
845,60	-75,77
845,77	-8,19
845,94	-10,24
846,11	6,14
846,29	40,96
846,46	36,86
846,63	12,29
846,81	59,39
846,98	20,48
847,15	16,38
847,32	4,10
847,50	4,10
847,67	2,05
847,84	-61,44
848,01	108,54
848,19	77,82
848,36	-4,10
848,53	-16,38
848,71	-4,10
848,88	-16,38
849,05	-24,58
849,22	106,49
849,40	-59,39
849,57	32,77
849,74	18,43
849,91	-104,45
850,09	-26,62
850,26	88,06
850,43	-4,10
850,60	18,43
850,78	14,34
850,95	20,48
851,12	178,17
851,29	-83,97
851,47	-106,49
851,64	100,35
851,81	-18,43
851,98	32,77
852,15	112,64
852,33	-69,63
852,50	-8,19
852,67	32,77
852,84	-45,06
853,02	-28,67
853,19	83,97
853,36	-20,48
853,53	6,14
853,70	108,54
853,88	-53,25
854,05	14,34
854,22	-24,58
854,39	-38,91
854,56	6,14
854,74	-34,82
854,91	-57,34
855,08	8,19
855,25	-28,67
855,42	90,11
855,60	0,00
855,77	-81,92
855,94	-38,91
856,11	36,86
856,28	-45,06
856,46	-61,44
856,63	-61,44
856,80	0,00
856,97	81,92
857,14	-18,43
857,31	4,10
857,49	-77,82
857,66	79,87
857,83	86,01
858,00	-55,30
858,17	71,68
858,34	-2,05
858,52	63,49
858,69	112,64
858,86	-8,19
859,03	65,54
859,20	51,20
859,37	100,35
859,55	75,77
859,72	81,92
859,89	-12,29
860,06	-26,62
860,23	77,82
860,40	-22,53
860,57	-32,77
860,75	6,14
860,92	20,48
861,09	-22,53
861,26	47,10
861,43	79,87
861,60	24,58
861,77	75,77
861,95	-45,06
862,12	32,77
862,29	59,39
862,46	49,15
862,63	24,58
862,80	49,15
862,97	34,82
863,14	73,73
863,31	-43,01
863,49	26,62
863,66	-18,43
863,83	22,53
864,00	-51,20
864,17	-32,77
864,34	53,25
864,51	-98,30
864,68	-67,58
864,85	53,25
865,02	-96,25
865,20	-24,58
865,37	67,58
865,54	14,34
865,71	-61,44
865,88	38,91
866,05	49,15
866,22	32,77
866,39	-12,29
866,56	-67,58
866,73	12,29
866,90	-18,43
867,07	83,97
867,25	18,43
867,42	69,63
867,59	18,43
867,76	-16,38
867,93	67,58
868,10	-51,20
868,27	34,82
868,44	75,77
868,61	-18,43
868,78	2,05
868,95	28,67
869,12	-6,14
869,29	51,20
869,46	-51,20
869,63	30,72
869,80	40,96
869,97	-26,62
870,14	57,34
870,32	-129,02
870,49	-51,20
870,66	34,82
870,83	71,68
871,00	-4,10
871,17	106,49
871,34	-57,34
871,51	86,01
871,68	65,54
871,85	-12,29
872,02	16,38
872,19	108,54
872,36	38,91
872,53	12,29
872,70	-38,91
872,87	32,77
873,04	-57,34
873,21	-16,38
873,38	57,34
873,55	79,87
873,72	-69,63
873,89	108,54
874,06	24,58
874,23	-6,14
874,40	-2,05
874,57	-20,48
874,74	-20,48
874,91	47,10
875,08	51,20
875,25	26,62
875,42	8,19
875,59	12,29
875,76	2,05
875,93	45,06
876,10	-10,24
876,27	-16,38
876,44	-32,77
876,61	-38,91
876,78	30,72
876,95	36,86
877,12	-49,15
877,29	-20,48
877,46	-8,19
877,62	40,96
877,79	51,20
877,96	67,58
878,13	75,77
878,30	0,00
878,47	36,86
878,64	-83,97
878,81	-10,24
878,98	-61,44
879,15	12,29
879,32	77,82
879,49	-14,34
879,66	14,34
879,83	-14,34
880,00	-22,53
880,17	59,39
880,34	-16,38
880,51	63,49
880,67	120,83
880,84	-18,43
881,01	14,34
881,18	57,34
881,35	104,45
881,52	-22,53
881,69	57,34
881,86	-20,48
882,03	-40,96
882,20	20,48
882,37	-96,25
882,54	-8,19
882,70	0,00
882,87	86,01
883,04	45,06
883,21	-12,29
883,38	47,10
883,55	6,14
883,72	-16,38
883,89	47,10
884,06	63,49
884,23	12,29
884,39	24,58
884,56	-73,73
884,73	100,35
884,90	73,73
885,07	-2,05
885,24	40,96
885,41	100,35
885,58	-20,48
885,74	71,68
885,91	22,53
886,08	36,86
886,25	86,01
886,42	104,45
886,59	94,21
886,76	-61,44
886,93	-22,53
887,09	55,30
887,26	65,53
887,43	-6,14
887,60	20,48
887,77	-6,14
887,94	8,19
888,10	30,72
888,27	-36,86
888,44	-45,06
888,61	-12,29
888,78	16,38
888,95	16,38
889,12	-20,48
889,28	-2,05
889,45	-6,14
889,62	90,11
889,79	-57,34
889,96	-26,62
890,13	24,58
890,29	-6,14
890,46	-4,10
890,63	59,39
890,80	-94,21
890,97	-26,62
891,13	-32,77
891,30	36,86
891,47	-65,54
891,64	-10,24
891,81	57,34
891,98	6,14
892,14	83,97
892,31	-36,86
892,48	-126,97
892,65	-90,11
892,82	-12,29
892,98	71,68
893,15	-96,25
893,32	38,91
>>>>>End Processed Spectral Data<<<<<
