SpectraSuite Datei
++++++++++++++++++++++++++++++++++++
Datum: Mon Feb 18 14:20:13 CET 2019
Benutzer: Admin
Dark-Spektrum vorhanden: Ja
Referenz-Spektrum vorhanden: Nein
Zahl der probierten Teilspektren: 1
Spektrometer: USB4F05832
Integrationszeit (usec): 3800 (USB4F05832)
Spektren Durchschnitt berechnet: 1 (USB4F05832)
Boxcar Glättung: 0 (USB4F05832)
Dunkelstromkorrektur: Nein (USB4F05832)
Puls/Lampe aktiviert: Nein (USB4F05832)
Correct for Detector Non-linearity: Nein (USB4F05832)
Streulichtkorrektur: Nein (USB4F05832)
Anzahl Pixel in verarbeitetem Spektrum: 3648
>>>>>Begin Processed Spectral Data<<<<<
177,54	90,11
177,75	90,11
177,97	90,11
178,19	47,10
178,41	172,03
178,63	-86,01
178,85	45,06
179,07	75,77
179,29	43,01
179,51	133,12
179,73	16,38
179,95	-110,59
180,17	30,72
180,39	-20,48
180,61	8,19
180,83	-34,82
181,05	-24,58
181,27	47,10
181,49	-40,96
181,71	-14,34
181,92	-77,82
182,14	-28,67
182,36	108,54
182,58	-102,40
182,80	92,16
183,02	-53,25
183,24	-24,58
183,46	49,15
183,68	-67,58
183,90	-12,29
184,12	79,87
184,34	-65,54
184,56	49,15
184,78	-59,39
185,00	-90,11
185,21	-69,63
185,43	96,25
185,65	-120,83
185,87	-18,43
186,09	6,14
186,31	12,29
186,53	-2,05
186,75	4,10
186,97	-67,58
187,19	-94,21
187,41	-47,10
187,63	-77,82
187,84	-67,58
188,06	-34,82
188,28	-30,72
188,50	-61,44
188,72	-92,16
188,94	-110,59
189,16	-38,91
189,38	-20,48
189,60	26,62
189,82	16,38
190,03	-34,82
190,25	-14,34
190,47	16,38
190,69	88,06
190,91	106,49
191,13	-45,06
191,35	-79,87
191,57	-47,10
191,79	34,82
192,01	-18,43
192,22	-24,58
192,44	-88,06
192,66	-51,20
192,88	-8,19
193,10	100,35
193,32	102,40
193,54	-24,58
193,76	-12,29
193,98	40,96
194,19	-81,92
194,41	-26,62
194,63	4,10
194,85	-26,62
195,07	-135,17
195,29	151,55
195,51	-83,97
195,73	-59,39
195,94	-8,19
196,16	16,38
196,38	-104,45
196,60	14,34
196,82	112,64
197,04	-22,53
197,26	51,20
197,48	112,64
197,69	24,58
197,91	69,63
198,13	18,43
198,35	-32,77
198,57	-38,91
198,79	-63,49
199,01	-77,82
199,22	-59,39
199,44	6,14
199,66	-75,77
199,88	30,72
200,10	-2,05
200,32	-104,45
200,54	-88,06
200,75	-20,48
200,97	4,10
201,19	-38,91
201,41	-38,91
201,63	47,10
201,85	53,25
202,06	-4,10
202,28	-24,58
202,50	-43,01
202,72	169,98
202,94	-34,82
203,16	-20,48
203,38	-4,10
203,59	-45,06
203,81	-63,49
204,03	-30,72
204,25	0,00
204,47	-53,25
204,69	16,38
204,90	-49,15
205,12	24,58
205,34	-22,53
205,56	22,53
205,78	73,73
206,00	-108,54
206,21	-98,30
206,43	-43,01
206,65	-92,16
206,87	-77,82
207,09	-12,29
207,30	145,41
207,52	-2,05
207,74	-34,82
207,96	98,30
208,18	12,29
208,40	14,34
208,61	-77,82
208,83	-67,58
209,05	-67,58
209,27	0,00
209,49	-77,82
209,70	-53,25
209,92	-38,91
210,14	118,78
210,36	16,38
210,58	-38,91
210,79	-38,91
211,01	36,86
211,23	-34,82
211,45	94,21
211,67	-63,49
211,88	14,34
212,10	-8,19
212,32	45,06
212,54	-65,54
212,76	-22,53
212,97	16,38
213,19	8,19
213,41	-8,19
213,63	92,16
213,85	-20,48
214,06	65,54
214,28	-83,97
214,50	-30,72
214,72	4,10
214,94	22,53
215,15	-63,49
215,37	-10,24
215,59	49,15
215,81	61,44
216,02	94,21
216,24	-77,82
216,46	-73,73
216,68	-75,77
216,90	-4,10
217,11	-124,93
217,33	65,54
217,55	-153,60
217,77	59,39
217,98	32,77
218,20	-30,72
218,42	8,19
218,64	14,34
218,85	-59,39
219,07	126,97
219,29	-63,49
219,51	-53,25
219,73	-22,53
219,94	112,64
220,16	-141,31
220,38	-108,54
220,60	40,96
220,81	59,39
221,03	-61,44
221,25	-77,82
221,47	102,40
221,68	-2,05
221,90	-86,01
222,12	12,29
222,34	55,30
222,55	-10,24
222,77	-10,24
222,99	77,82
223,21	-24,58
223,42	-32,77
223,64	-63,49
223,86	92,16
224,08	-26,62
224,29	51,20
224,51	-83,97
224,73	-28,67
224,94	40,96
225,16	8,19
225,38	-28,67
225,60	38,91
225,81	36,86
226,03	110,59
226,25	20,48
226,47	6,14
226,68	-47,10
226,90	61,44
227,12	43,01
227,33	61,44
227,55	4,10
227,77	43,01
227,99	-118,78
228,20	94,21
228,42	32,77
228,64	16,38
228,86	26,62
229,07	79,87
229,29	94,21
229,51	45,06
229,72	32,77
229,94	-129,02
230,16	-18,43
230,38	49,15
230,59	88,06
230,81	-100,35
231,03	-24,58
231,24	75,77
231,46	55,30
231,68	81,92
231,89	30,72
232,11	34,82
232,33	-77,82
232,55	69,63
232,76	8,19
232,98	-47,10
233,20	-14,34
233,41	65,54
233,63	38,91
233,85	-86,01
234,06	20,48
234,28	10,24
234,50	-34,82
234,71	30,72
234,93	-112,64
235,15	6,14
235,37	-51,20
235,58	-36,86
235,80	16,38
236,02	-18,43
236,23	-92,16
236,45	-49,15
236,67	-71,68
236,88	-81,92
237,10	-43,01
237,32	26,62
237,53	-4,10
237,75	67,58
237,97	36,86
238,18	-47,10
238,40	-135,17
238,62	-38,91
238,83	45,06
239,05	0,00
239,27	71,68
239,48	55,30
239,70	12,29
239,92	-79,87
240,13	-126,97
240,35	26,62
240,57	61,44
240,78	6,14
241,00	-30,72
241,22	10,24
241,43	-71,68
241,65	12,29
241,87	-8,19
242,08	-28,67
242,30	90,11
242,52	-24,58
242,73	-90,11
242,95	-98,30
243,16	77,82
243,38	-34,82
243,60	-114,69
243,81	137,21
244,03	-133,12
244,25	94,21
244,46	18,43
244,68	-10,24
244,90	10,24
245,11	57,34
245,33	-73,73
245,55	92,16
245,76	-28,67
245,98	22,53
246,19	-112,64
246,41	-2,05
246,63	-81,92
246,84	-34,82
247,06	0,00
247,28	-47,10
247,49	88,06
247,71	36,86
247,92	0,00
248,14	-53,25
248,36	-43,01
248,57	-57,34
248,79	-114,69
249,01	16,38
249,22	-24,58
249,44	-16,38
249,65	-81,92
249,87	-79,87
250,09	86,01
250,30	-4,10
250,52	45,06
250,73	-51,20
250,95	61,44
251,17	-108,54
251,38	77,82
251,60	79,87
251,81	40,96
252,03	0,00
252,25	-69,63
252,46	6,14
252,68	28,67
252,89	59,39
253,11	-12,29
253,33	-61,44
253,54	83,97
253,76	-12,29
253,97	-2,05
254,19	14,34
254,41	34,82
254,62	-53,25
254,84	6,14
255,05	18,43
255,27	55,30
255,49	-2,05
255,70	24,58
255,92	12,29
256,13	81,92
256,35	-36,86
256,56	-10,24
256,78	-67,58
257,00	86,01
257,21	-28,67
257,43	20,48
257,64	4,10
257,86	-112,64
258,08	36,86
258,29	-88,06
258,51	-38,91
258,72	-65,53
258,94	10,24
259,15	18,43
259,37	2,05
259,59	-40,96
259,80	-67,58
260,02	-8,19
260,23	-12,29
260,45	63,49
260,66	40,96
260,88	-59,39
261,09	6,14
261,31	6,14
261,53	-6,14
261,74	-86,01
261,96	86,01
262,17	114,69
262,39	-14,34
262,60	34,82
262,82	16,38
263,03	38,91
263,25	-59,39
263,46	-22,53
263,68	110,59
263,90	0,00
264,11	26,62
264,33	-153,60
264,54	-12,29
264,76	47,10
264,97	-18,43
265,19	-14,34
265,40	-59,39
265,62	30,72
265,83	-14,34
266,05	-6,14
266,26	51,20
266,48	-14,34
266,70	-4,10
266,91	24,58
267,13	-45,06
267,34	-102,40
267,56	43,01
267,77	43,01
267,99	2,05
268,20	2,05
268,42	94,21
268,63	55,30
268,85	-51,20
269,06	-88,06
269,28	47,10
269,49	6,14
269,71	-28,67
269,92	0,00
270,14	88,06
270,35	-71,68
270,57	30,72
270,78	-16,38
271,00	0,00
271,21	-36,86
271,43	92,16
271,64	92,16
271,86	45,06
272,07	-90,11
272,29	-10,24
272,50	36,86
272,72	-122,88
272,93	-65,53
273,15	-55,30
273,36	-90,11
273,58	40,96
273,79	-6,14
274,01	-8,19
274,22	34,82
274,44	34,82
274,65	-20,48
274,87	16,38
275,08	12,29
275,30	71,68
275,51	-57,34
275,73	-161,79
275,94	57,34
276,16	63,49
276,37	-34,82
276,59	-6,14
276,80	-143,36
277,02	-4,10
277,23	18,43
277,45	20,48
277,66	26,62
277,88	-20,48
278,09	-38,91
278,30	-22,53
278,52	45,06
278,73	-51,20
278,95	-57,34
279,16	-16,38
279,38	81,92
279,59	49,15
279,81	-24,58
280,02	-67,58
280,24	-59,39
280,45	34,82
280,67	-18,43
280,88	-47,10
281,09	-53,25
281,31	-49,15
281,52	-28,67
281,74	16,38
281,95	100,35
282,17	-57,34
282,38	-18,43
282,60	55,30
282,81	-69,63
283,02	90,11
283,24	8,19
283,45	-79,87
283,67	-2,05
283,88	-108,54
284,10	49,15
284,31	77,82
284,53	92,16
284,74	18,43
284,95	65,54
285,17	24,58
285,38	-24,58
285,60	34,82
285,81	57,34
286,03	-8,19
286,24	8,19
286,45	-20,48
286,67	-126,97
286,88	133,12
287,10	-143,36
287,31	20,48
287,53	-12,29
287,74	-10,24
287,95	124,93
288,17	51,20
288,38	-8,19
288,60	6,14
288,81	34,82
289,02	67,58
289,24	-116,73
289,45	147,45
289,67	-4,10
289,88	86,01
290,10	63,49
290,31	34,82
290,52	6,14
290,74	28,67
290,95	-108,54
291,17	-12,29
291,38	-96,25
291,59	-49,15
291,81	43,01
292,02	-24,58
292,24	-20,48
292,45	28,67
292,66	38,91
292,88	-2,05
293,09	81,92
293,31	-24,58
293,52	-75,77
293,73	67,58
293,95	63,49
294,16	-8,19
294,37	-110,59
294,59	-96,25
294,80	-151,55
295,02	69,63
295,23	-28,67
295,44	63,49
295,66	63,49
295,87	-28,67
296,09	18,43
296,30	-49,15
296,51	124,93
296,73	96,25
296,94	79,87
297,15	61,44
297,37	81,92
297,58	-2,05
297,79	-65,53
298,01	24,58
298,22	20,48
298,44	-38,91
298,65	-65,54
298,86	43,01
299,08	-51,20
299,29	14,34
299,50	100,35
299,72	143,36
299,93	79,87
300,14	73,73
300,36	172,03
300,57	47,10
300,79	49,15
301,00	-94,21
301,21	104,45
301,43	-51,20
301,64	126,97
301,85	16,38
302,07	79,87
302,28	22,53
302,49	-51,20
302,71	-77,82
302,92	-40,96
303,13	2,05
303,35	98,30
303,56	2,05
303,77	81,92
303,99	-24,58
304,20	63,49
304,41	16,38
304,63	153,60
304,84	-32,77
305,05	20,48
305,27	83,97
305,48	2,05
305,69	100,35
305,91	131,07
306,12	120,83
306,33	114,69
306,55	167,93
306,76	169,98
306,97	256,00
307,19	196,61
307,40	251,90
307,61	118,78
307,82	237,56
308,04	96,25
308,25	51,20
308,46	135,17
308,68	192,51
308,89	108,54
309,10	126,97
309,32	225,28
309,53	192,51
309,74	274,43
309,96	167,93
310,17	376,83
310,38	350,20
310,59	184,32
310,81	380,92
311,02	432,12
311,23	491,51
311,45	438,27
311,66	339,96
311,87	471,03
312,09	407,55
312,30	466,94
312,51	475,13
312,72	440,31
312,94	376,83
313,15	579,58
313,36	501,75
313,58	536,57
313,79	552,95
314,00	565,24
314,21	622,58
314,43	507,90
314,64	718,84
314,85	614,39
315,06	614,39
315,28	643,06
315,49	659,45
315,70	780,28
315,92	667,64
316,13	819,19
316,34	864,24
316,55	915,44
316,77	952,31
316,98	1042,42
317,19	829,43
317,40	1007,60
317,62	1015,79
317,83	827,38
318,04	923,63
318,25	1103,86
318,47	1091,57
318,68	1050,61
318,89	1005,55
319,11	1191,92
319,32	1296,36
319,53	1105,90
319,74	1388,52
319,96	1193,97
320,17	1181,68
320,38	1198,06
320,59	1198,06
320,81	1232,88
321,02	1175,53
321,23	1363,95
321,44	1163,25
321,65	1146,86
321,87	1327,08
322,08	1179,63
322,29	1300,46
322,50	1390,57
322,72	1425,39
322,93	1347,56
323,14	1597,42
323,35	1419,24
323,57	1583,08
323,78	1630,18
323,99	1769,44
324,20	1603,56
324,41	1914,85
324,63	1755,11
324,84	1867,75
325,05	1974,24
325,26	2068,45
325,48	2107,36
325,69	2115,55
325,90	2463,71
326,11	2336,73
326,32	2215,90
326,54	2299,87
326,75	2260,96
326,96	2275,29
327,17	2021,35
327,39	2176,99
327,60	2265,05
327,81	2170,85
328,02	2070,50
328,23	2389,98
328,45	2480,09
328,66	2809,81
328,87	2584,54
329,08	2781,14
329,29	2850,77
329,51	2959,31
329,72	2883,54
329,93	2828,24
330,14	2742,23
330,35	2688,98
330,56	2719,70
330,78	2645,98
330,99	2754,52
331,20	2797,53
331,41	2879,44
331,62	2766,81
331,84	2990,03
332,05	2813,91
332,26	3033,04
332,47	2928,60
332,68	2969,55
332,90	2910,16
333,11	2803,67
333,32	2820,05
333,53	2963,41
333,74	2963,41
333,95	3047,38
334,17	2996,18
334,38	2969,55
334,59	3182,54
334,80	2990,03
335,01	2803,67
335,22	3016,66
335,44	2865,11
335,65	2815,96
335,86	2731,99
336,07	2596,82
336,28	2738,13
336,49	2793,43
336,71	2834,39
336,92	2660,31
337,13	2777,05
337,34	2873,30
337,55	3008,47
337,76	3184,59
337,97	2949,08
338,19	3088,34
338,40	3278,80
338,61	3153,87
338,82	3315,66
339,03	3497,93
339,24	3590,09
339,45	3493,83
339,67	3473,36
339,88	3395,53
340,09	3561,42
340,30	3438,54
340,51	3254,22
340,72	3354,57
340,93	3446,73
341,15	3612,62
341,36	3426,25
341,57	3485,64
341,78	3635,14
341,99	3631,05
342,20	3780,55
342,41	3569,61
342,62	3614,66
342,84	3706,82
343,05	3553,23
343,26	3413,96
343,47	3348,43
343,68	3459,02
343,89	3135,44
344,10	3272,65
344,31	3327,95
344,53	3571,66
344,74	3616,71
344,95	3667,91
345,16	3825,61
345,37	3684,30
345,58	3510,22
345,79	3901,38
346,00	3958,72
346,21	3743,69
346,42	3844,04
346,64	3844,04
346,85	3792,84
347,06	3729,35
347,27	3882,95
347,48	3942,34
347,69	3784,65
347,90	3805,13
348,11	3788,74
348,32	3780,55
348,53	3829,70
348,75	3991,49
348,96	4151,23
349,17	4323,26
349,38	4177,86
349,59	4206,53
349,80	4569,02
350,01	4454,33
350,22	4376,51
350,43	4454,33
350,64	4468,67
350,85	4376,51
351,06	4331,45
351,28	4335,55
351,49	4292,54
351,70	4452,28
351,91	4329,41
352,12	4202,43
352,33	4302,78
352,54	4573,11
352,75	4483,00
352,96	4505,53
353,17	5005,24
353,38	4986,80
353,59	4845,49
353,80	5035,96
354,01	5074,87
354,22	5187,50
354,44	5228,46
354,65	4968,37
354,86	4927,41
355,07	5040,05
355,28	4956,08
355,49	4573,11
355,70	4456,38
355,91	4513,72
356,12	4423,61
356,33	4149,18
356,54	4057,03
356,75	4036,55
356,96	4134,85
357,17	3782,60
357,38	3841,99
357,59	3690,44
357,80	3727,30
358,01	3903,43
358,22	3889,09
358,43	4151,23
358,64	4310,97
358,85	4706,23
359,07	4827,06
359,28	5130,16
359,49	5003,19
359,70	4992,95
359,91	5128,11
360,12	4747,19
360,33	4798,39
360,54	4757,43
360,75	4876,21
360,96	4822,97
361,17	4597,69
361,38	5019,57
361,59	5025,72
361,80	5271,47
362,01	5164,98
362,22	5285,81
362,43	5416,88
362,64	5345,20
362,85	5679,02
363,06	5306,29
363,27	5713,83
363,48	5633,96
363,69	5566,38
363,90	5730,22
364,11	5820,33
364,32	5685,16
364,53	5982,12
364,74	6068,13
364,95	6451,10
365,16	6584,22
365,37	6721,43
365,58	6809,50
365,79	7227,28
366,00	6928,28
366,21	6930,33
366,42	6918,04
366,63	6774,68
366,84	6821,78
367,05	6703,00
367,26	6590,36
367,47	6412,19
367,68	6328,22
367,89	6127,52
368,10	5834,66
368,31	5916,58
368,52	5994,40
368,73	6780,82
368,94	6549,40
369,15	6602,65
369,36	6852,50
369,57	6703,00
369,78	6909,85
369,99	6930,33
370,20	6995,86
370,40	7018,39
370,61	7100,31
370,82	6930,33
371,03	6911,89
371,24	6899,61
371,45	6829,98
371,66	6795,16
371,87	6481,82
372,08	6684,57
372,29	6344,61
372,50	6123,43
372,71	6160,29
372,92	6188,96
373,13	5935,01
373,34	5939,11
373,55	5783,46
373,76	5855,14
373,97	5859,24
374,18	6029,22
374,39	6285,22
374,60	6264,74
374,81	6582,17
375,01	6612,89
375,22	6825,88
375,43	6741,91
375,64	7090,07
375,85	6983,57
376,06	7399,31
376,27	7260,05
376,48	7749,51
376,69	7636,88
376,90	7913,35
377,11	8456,06
377,32	8357,76
377,53	8542,08
377,74	8820,60
377,94	8601,47
378,15	8472,45
378,36	8030,09
378,57	7976,84
378,78	7573,39
378,99	7767,95
379,20	7636,88
379,41	7616,40
379,62	7757,71
379,83	8169,35
380,04	8195,97
380,25	7880,58
380,45	7878,54
380,66	7708,55
380,87	7489,42
381,08	7110,55
381,29	7180,18
381,50	6393,76
381,71	6225,82
381,92	6203,30
382,13	5851,05
382,34	5089,20
382,55	5015,48
382,75	5226,42
382,96	5121,97
383,17	5400,49
383,38	5883,81
383,59	6133,67
383,80	6299,55
384,01	6514,59
384,22	6967,19
384,43	6999,96
384,63	6977,43
384,84	7270,29
385,05	7018,39
385,26	7227,28
385,47	7401,36
385,68	7391,12
385,89	7456,65
386,10	7294,86
386,30	7530,38
386,51	7249,81
386,72	7473,04
386,93	7212,95
387,14	7344,02
387,35	7397,26
387,56	7202,71
387,77	7358,35
387,97	7686,03
388,18	7942,02
388,39	8187,78
388,60	8390,53
388,81	8324,99
389,02	8779,64
389,23	9013,11
389,43	9097,08
389,64	9203,57
389,85	9420,66
390,06	9478,00
390,27	9703,28
390,48	9801,58
390,69	10018,66
390,89	10262,37
391,10	9707,37
391,31	9365,36
391,52	9064,31
391,73	8662,91
391,94	7813,00
392,14	7090,07
392,35	6606,75
392,56	6309,79
392,77	6191,01
392,98	5988,26
393,19	5982,12
393,39	6508,44
393,60	7030,68
393,81	7741,32
394,02	7860,10
394,23	9070,45
394,44	9318,26
394,64	9336,69
394,85	10143,59
395,06	9203,57
395,27	9170,80
395,48	8433,54
395,69	7751,56
395,89	7741,32
396,10	7577,48
396,31	7061,40
396,52	7563,15
396,73	7886,73
396,93	8841,08
397,14	8879,99
397,35	10188,64
397,56	10495,84
397,77	11480,91
397,97	12134,21
398,18	13076,28
398,39	12795,71
398,60	13344,56
398,81	13373,24
399,01	14020,39
399,22	13604,66
399,43	14075,69
399,64	14069,55
399,85	13850,41
400,05	14257,96
400,26	14536,48
400,47	14444,32
400,68	14835,49
400,89	14550,82
401,09	15380,25
401,30	15277,85
401,51	14933,79
401,72	15015,71
401,93	15238,94
402,13	15339,29
402,34	14827,29
402,55	14911,26
402,76	14935,84
402,96	15009,56
403,17	14481,19
403,38	14559,01
403,59	14305,06
403,80	15367,96
404,00	14835,49
404,21	14573,35
404,42	15007,52
404,63	14954,27
404,83	15163,16
405,04	14303,01
405,25	14647,07
405,46	14260,01
405,66	14069,55
405,87	14618,40
406,08	14622,50
406,29	14956,32
406,49	14493,47
406,70	14536,48
406,91	14374,69
407,12	15314,71
407,32	14870,30
407,53	15959,82
407,74	15515,41
407,95	15136,54
408,15	16111,37
408,36	15562,51
408,57	15648,53
408,78	15722,26
408,98	15329,05
409,19	14925,60
409,40	15378,20
409,61	14700,32
409,81	14858,01
410,02	15619,86
410,23	15509,27
410,44	15984,40
410,64	16068,36
410,85	16097,03
411,06	16676,61
411,26	16193,29
411,47	16711,43
411,68	16713,47
411,89	16027,40
412,09	16654,08
412,30	16699,14
412,51	16123,66
412,72	16074,51
412,92	17342,20
413,13	16666,37
413,34	16283,40
413,54	16533,25
413,75	16570,12
413,96	16570,12
414,17	16267,02
414,37	16770,82
414,58	16432,90
414,79	17082,11
414,99	16467,72
415,20	17053,44
415,41	17071,87
415,61	17450,74
415,82	17659,63
416,03	16365,32
416,24	16707,33
416,44	16809,73
416,65	16592,64
416,86	17004,28
417,06	16811,78
417,27	16211,72
417,48	16158,47
417,68	16803,58
417,89	16830,21
418,10	16205,58
418,30	16678,66
418,51	16453,38
418,72	16295,69
418,92	17198,84
419,13	16346,89
419,34	16961,28
419,55	16774,91
419,75	16420,61
419,96	16938,75
420,17	17671,92
420,37	17657,59
420,58	17030,91
420,79	16617,22
420,99	17796,85
421,20	17917,68
421,41	17403,64
421,61	17178,36
421,82	16369,41
422,03	16846,59
422,23	16674,56
422,44	17096,44
422,65	17139,45
422,85	16901,89
423,06	17354,49
423,26	17540,85
423,47	17764,08
423,68	17180,41
423,88	17680,11
424,09	17211,13
424,30	17362,68
424,50	17696,50
424,71	17809,14
424,92	17272,57
425,12	17202,94
425,33	17948,40
425,54	18196,20
425,74	18005,74
425,95	17082,11
426,15	17923,82
426,36	16662,27
426,57	17491,70
426,77	17035,00
426,98	17512,18
427,19	17190,65
427,39	17731,31
427,60	16699,14
427,81	17035,00
428,01	16580,36
428,22	17714,93
428,42	15896,33
428,63	16262,92
428,84	16019,21
429,04	14976,80
429,25	14630,69
429,45	13965,10
429,66	14253,86
429,87	14296,87
430,07	14214,95
430,28	14296,87
430,49	14759,71
430,69	15806,22
430,90	16027,40
431,10	16785,15
431,31	17069,82
431,52	18175,72
431,72	17805,04
431,93	17698,55
432,13	18444,01
432,34	18773,73
432,55	17899,25
432,75	18855,65
432,96	18665,19
433,16	18474,73
433,37	18745,06
433,58	19218,14
433,78	18972,38
433,99	17727,22
434,19	19220,19
434,40	19461,85
434,60	19572,44
434,81	19674,84
435,02	19992,27
435,22	20600,52
435,43	20285,13
435,63	20438,73
435,84	21210,81
436,05	21059,26
436,25	19936,98
436,46	21087,93
436,66	20774,59
436,87	20465,35
437,07	19451,61
437,28	19529,43
437,48	20041,42
437,69	19304,15
437,90	19259,10
438,10	19328,73
438,31	19257,05
438,51	20332,23
438,72	19740,37
438,92	19842,77
439,13	20033,23
439,34	20102,86
439,54	20307,66
439,75	20180,68
439,95	20309,71
440,16	21049,02
440,36	20657,86
440,57	20907,71
440,77	21759,67
440,98	21057,21
441,18	21636,79
441,39	21769,91
441,60	22984,35
441,80	22351,53
442,01	21311,16
442,21	22879,91
442,42	21874,35
442,62	22013,62
442,83	22449,83
443,03	22140,59
443,24	22695,59
443,44	22306,48
443,65	22795,94
443,85	22464,17
444,06	22777,51
444,26	22480,55
444,47	21882,55
444,67	22552,23
444,88	21685,94
445,09	21419,71
445,29	21882,55
445,50	21708,47
445,70	21522,10
445,91	22118,06
446,11	21765,81
446,32	22412,97
446,52	22820,52
446,73	22789,80
446,93	22740,64
447,14	23193,25
447,34	23783,06
447,55	23051,94
447,75	23101,09
447,96	23912,08
448,16	23383,71
448,37	23463,58
448,57	23264,92
448,78	23975,57
448,98	23762,58
449,19	23750,29
449,39	24223,37
449,60	23932,56
449,80	24821,38
450,01	24915,59
450,21	24989,31
450,42	25265,79
450,62	24866,44
450,83	24583,82
451,03	24637,06
451,23	24657,54
451,44	24307,34
451,64	23783,06
451,85	23461,53
452,05	23959,19
452,26	23516,83
452,46	23295,64
452,67	23248,54
452,87	23346,84
453,08	23307,93
453,28	22703,78
453,49	24139,41
453,69	23385,76
453,90	23512,73
454,10	24000,15
454,31	23735,96
454,51	23731,86
454,71	24004,24
454,92	23561,88
455,12	23987,86
455,33	24870,53
455,53	25134,72
455,74	26025,59
455,94	26744,42
456,15	26887,78
456,35	27487,84
456,55	27485,79
456,76	27749,98
456,96	28481,10
457,17	26568,30
457,37	29263,43
457,58	28042,84
457,78	28907,08
457,99	28423,76
458,19	26406,51
458,39	28169,81
458,60	28939,85
458,80	28712,52
459,01	27860,57
459,21	27684,44
459,42	29267,52
459,62	27809,37
459,82	30651,95
460,03	28880,46
460,23	29853,24
460,44	29785,66
460,64	27731,54
460,85	30707,24
461,05	28640,84
461,25	28950,09
461,46	31299,11
461,66	30266,93
461,87	29724,22
462,07	29982,26
462,27	28874,31
462,48	28653,13
462,68	29511,23
462,89	29165,12
463,09	28440,14
463,29	29730,36
463,50	29435,45
463,70	29961,78
463,91	29077,06
464,11	28911,17
464,31	29877,82
464,52	30015,03
464,72	30449,20
464,93	30109,24
465,13	31120,93
465,33	29720,12
465,54	29273,67
465,74	28798,54
465,95	30273,07
466,15	30342,70
466,35	30815,79
466,56	29922,87
466,76	30645,80
466,96	30031,41
467,17	30004,79
467,37	30467,63
467,58	30662,19
467,78	30647,85
467,98	31938,07
468,19	30576,17
468,39	32036,38
468,59	32063,00
468,80	31012,39
469,00	31014,44
469,21	30883,37
469,41	31157,80
469,61	31841,82
469,82	31206,95
470,02	32701,96
470,22	33639,93
470,43	33404,42
470,63	32534,03
470,83	34938,35
471,04	33834,49
471,24	34139,64
471,45	34205,17
471,65	35112,42
471,85	34582,00
472,06	35257,83
472,26	35321,32
472,46	35669,47
472,67	35585,51
472,87	36150,74
473,07	35530,21
473,28	35306,98
473,48	36990,41
473,68	36851,15
473,89	36748,75
474,09	36986,32
474,29	37293,51
474,50	38184,38
474,70	37453,25
474,90	37580,23
475,11	38354,36
475,31	38182,33
475,51	37961,15
475,72	38213,05
475,92	38280,63
476,12	37545,41
476,33	39411,11
476,53	39321,00
476,73	39988,64
476,93	40502,68
477,14	40203,67
477,34	40244,63
477,54	40879,50
477,75	41758,08
477,95	41405,83
478,15	41162,12
478,36	42206,59
478,56	42339,71
478,76	42857,84
478,97	43611,49
479,17	42366,33
479,37	42601,85
479,57	42904,95
479,78	43472,23
479,98	43068,78
480,18	43982,18
480,39	44000,61
480,59	44504,41
480,79	44502,36
480,99	45170,00
481,20	46005,57
481,40	45655,37
481,60	45829,44
481,81	45088,08
482,01	45606,22
482,21	45638,98
482,41	46040,39
482,62	45917,51
482,82	46185,79
483,02	46153,02
483,23	46226,75
483,43	46691,64
483,63	45626,70
483,83	46411,07
484,04	46996,79
484,24	45303,12
484,44	45630,79
484,64	44494,17
484,85	44043,62
485,05	43879,78
485,25	42714,48
485,45	42499,45
485,66	42794,35
485,86	42265,98
486,06	42892,66
486,26	42841,46
486,47	43316,59
486,67	44418,39
486,87	45405,52
487,07	45256,01
487,28	45487,43
487,48	45735,24
487,68	47420,72
487,88	46816,57
488,09	47783,21
488,29	47674,66
488,49	48276,77
488,69	48686,36
488,90	49194,26
489,10	48975,12
489,30	49098,00
489,50	49450,25
489,71	50294,02
489,91	50568,44
490,11	50003,20
490,31	50142,47
490,52	49851,66
490,72	49997,06
490,92	50234,63
491,12	49343,76
491,32	49554,70
491,53	49700,11
491,73	49636,62
491,93	50357,50
492,13	50121,99
492,33	50042,12
492,54	49610,00
492,74	50394,37
492,94	49837,32
493,14	50861,30
493,35	50806,01
493,55	51311,86
493,75	51776,75
493,95	51293,43
494,15	51254,51
494,36	52133,09
494,56	51639,53
494,76	52034,79
494,96	52315,36
495,16	51983,59
495,37	51569,90
495,57	51844,33
495,77	51653,87
495,97	51395,82
496,17	52608,22
496,37	51653,87
496,58	52415,71
496,78	51477,74
496,98	52184,29
497,18	51825,90
497,38	51436,78
497,59	51420,40
497,79	51397,87
497,99	50842,87
498,19	50902,26
498,39	50982,13
498,59	51377,39
498,80	50756,86
499,00	50945,27
499,20	50760,95
499,40	49874,18
499,60	49986,82
499,80	50031,88
500,01	49761,54
500,21	49360,14
500,41	48989,46
500,61	49237,26
500,81	48762,14
501,01	48303,39
501,22	48289,06
501,42	48456,99
501,62	48076,07
501,82	48833,81
502,02	48971,03
502,22	48764,18
502,42	48160,03
502,63	48530,72
502,83	47590,70
503,03	47945,00
503,23	48129,31
503,43	47662,38
503,63	47799,59
503,83	48024,87
504,04	47645,99
504,24	48307,49
504,44	48088,35
504,64	48921,88
504,84	48643,35
505,04	48395,55
505,24	49454,35
505,44	49231,12
505,65	48854,29
505,85	48592,15
506,05	48796,95
506,25	48528,67
506,45	48370,97
506,65	48002,34
506,85	48547,10
507,05	48039,20
507,26	48053,54
507,46	48028,96
507,66	48069,92
507,86	47951,14
508,06	48559,39
508,26	48469,28
508,46	48583,96
508,66	48565,53
508,86	48352,54
509,06	48932,12
509,27	48465,18
509,47	48381,21
509,67	48989,46
509,87	48712,98
510,07	48831,77
510,27	49036,56
510,47	49229,07
510,67	49446,16
510,87	49548,56
511,07	48997,65
511,28	49566,99
511,48	48737,56
511,68	48995,60
511,88	49005,84
512,08	48432,41
512,28	48151,84
512,48	47738,15
512,68	48248,10
512,88	48553,24
513,08	48606,49
513,28	48276,77
513,48	48002,34
513,68	48788,76
513,89	48334,11
514,09	47869,22
514,29	48594,20
514,49	48178,46
514,69	47920,42
514,89	48995,60
515,09	48131,36
515,29	48069,92
515,49	47512,88
515,69	46021,95
515,89	46265,66
516,09	46036,29
516,29	45974,85
516,49	45202,77
516,69	44934,48
516,89	44678,49
517,09	44729,69
517,29	45235,53
517,50	45358,41
517,70	45299,02
517,90	45458,76
518,10	46056,77
518,30	47514,92
518,50	47162,67
518,70	47918,37
518,90	48635,16
519,10	49067,28
519,30	49274,13
519,50	49528,08
519,70	49341,71
519,90	49593,61
520,10	50656,51
520,30	50527,48
520,50	50400,51
520,70	51033,33
520,90	50791,67
521,10	51205,36
521,30	50918,65
521,50	51045,62
521,70	51160,31
521,90	50767,10
522,10	50873,59
522,30	50351,36
522,50	50928,89
522,70	50904,31
522,90	51993,83
523,10	51784,94
523,30	52133,09
523,50	52012,26
523,70	52323,55
523,90	52606,17
524,10	53128,41
524,30	52219,11
524,50	52407,52
524,70	52430,05
524,90	52178,15
525,10	51999,97
525,30	51322,10
525,50	51270,90
525,70	50527,48
525,90	49573,13
526,10	49241,36
526,30	50212,10
526,50	49261,84
526,70	49528,08
526,90	49540,36
527,10	49046,80
527,30	49784,07
527,50	50441,47
527,70	51010,81
527,90	51520,75
528,10	51574,00
528,30	52604,13
528,50	52796,63
528,70	52380,90
528,90	52999,38
529,10	52270,31
529,30	52731,10
529,50	53423,31
529,70	52600,03
529,90	53028,05
530,10	53169,36
530,29	52815,07
530,49	53707,98
530,69	53200,08
530,89	53245,14
531,09	52284,64
531,29	51889,38
531,49	51916,01
531,69	51791,08
531,89	51129,59
532,09	51152,12
532,29	50218,24
532,49	50625,79
532,69	50285,82
532,89	50617,60
533,09	50564,35
533,29	51264,75
533,49	50304,26
533,68	50623,74
533,88	51272,95
534,08	51391,73
534,28	50930,93
534,48	51328,24
534,68	50908,41
534,88	50898,17
535,08	51729,64
535,28	51326,19
535,48	51735,79
535,68	50423,04
535,88	50666,75
536,08	50457,85
536,27	50867,45
536,47	50216,19
536,67	50859,26
536,87	50306,30
537,07	50029,83
537,27	50121,99
537,47	50351,36
537,67	50011,40
537,87	50285,82
538,07	50541,82
538,27	50048,26
538,46	50058,50
538,66	49405,20
538,86	49124,63
539,06	48604,44
539,26	48682,27
539,46	48006,44
539,66	47469,87
539,86	47387,95
540,06	47293,74
540,25	46873,91
540,45	47312,17
540,65	47719,72
540,85	48332,06
541,05	47830,31
541,25	47781,16
541,45	47572,27
541,65	47437,10
541,85	47820,07
542,04	47709,48
542,24	47654,18
542,44	47281,45
542,64	47244,59
542,84	46751,03
543,04	46888,24
543,24	46892,34
543,43	47471,92
543,63	47764,78
543,83	47310,13
544,03	47414,57
544,23	47525,16
544,43	47648,04
544,63	47273,26
544,82	47537,45
545,02	47007,03
545,22	47480,11
545,42	46787,89
545,62	47887,65
545,82	47338,80
546,02	46830,90
546,21	47174,96
546,41	46480,70
546,61	46327,10
546,81	46298,43
547,01	45600,07
547,21	45978,95
547,40	45493,58
547,60	45784,39
547,80	45417,80
548,00	45530,44
548,20	45137,23
548,40	45280,59
548,59	45587,78
548,79	45567,30
548,99	45782,34
549,19	45104,46
549,39	45294,92
549,59	45460,81
549,78	45010,26
549,98	45010,26
550,18	45000,02
550,38	44842,32
550,58	44877,14
550,77	44473,69
550,97	44811,60
551,17	44162,40
551,37	44275,04
551,57	44598,62
551,76	44023,14
551,96	44125,53
552,16	43730,28
552,36	44191,07
552,56	43998,56
552,75	43656,55
552,95	43779,43
553,15	43861,35
553,35	43304,30
553,55	43119,98
553,74	43674,98
553,94	43263,34
554,14	43036,02
554,34	43185,52
554,54	43394,41
554,73	44135,77
554,93	43871,59
555,13	43613,54
555,33	43332,97
555,53	43464,04
555,72	42528,12
555,92	41966,98
556,12	41725,32
556,32	41665,92
556,51	41786,75
556,71	42014,08
556,91	41493,89
557,11	41667,97
557,30	42050,94
557,50	41635,20
557,70	40986,00
557,90	41319,82
558,10	40715,67
558,29	40146,33
558,49	40310,17
558,69	39497,13
558,89	39452,07
559,08	39726,50
559,28	39675,30
559,48	40074,65
559,68	39777,70
559,87	40011,17
560,07	40074,65
560,27	40359,32
560,47	40396,18
560,66	40246,68
560,86	40068,51
561,06	39972,25
561,25	40316,31
561,45	39935,39
561,65	40177,05
561,85	40029,60
562,04	39863,71
562,24	39923,10
562,44	40002,97
562,64	39505,32
562,83	38962,61
563,03	39167,40
563,23	39572,90
563,42	39370,15
563,62	39740,83
563,82	39314,86
564,02	39062,96
564,21	39058,86
564,41	38774,19
564,61	38585,78
564,80	38395,32
565,00	38348,21
565,20	38176,19
565,40	38075,84
565,59	38796,72
565,79	38645,17
565,99	38311,35
566,18	38049,21
566,38	38258,10
566,58	37901,76
566,78	37651,91
566,97	38110,65
567,17	37871,04
567,37	38190,52
567,56	37623,23
567,76	37410,25
567,96	37541,32
568,15	37330,37
568,35	37201,35
568,55	37776,83
568,74	37184,97
568,94	37457,35
569,14	36943,31
569,33	37101,00
569,53	36513,23
569,73	36902,35
569,92	35937,76
570,12	35806,69
570,32	36062,68
570,52	35167,72
570,71	35659,23
570,91	35358,18
571,11	36203,99
571,30	35827,17
571,50	35857,88
571,70	36367,83
571,89	36447,70
572,09	36666,83
572,28	37492,16
572,48	37109,19
572,68	36908,49
572,87	37170,63
573,07	37125,58
573,27	36734,42
573,46	36492,76
573,66	36703,70
573,86	36320,73
574,05	36318,68
574,25	35739,10
574,45	36044,25
574,64	36257,24
574,84	35575,27
575,04	35732,96
575,23	36220,38
575,43	35913,18
575,62	35929,56
575,82	35218,92
576,02	35284,45
576,21	35360,23
576,41	35370,47
576,61	35689,95
576,80	34973,16
577,00	35057,13
577,19	35315,17
577,39	35329,51
577,59	34901,48
577,78	34776,56
577,98	35515,87
578,18	35048,94
578,37	35151,34
578,57	35198,44
578,76	35085,80
578,96	34860,52
579,16	35302,89
579,35	35210,73
579,55	34840,04
579,74	34635,25
579,94	35358,18
580,14	35304,93
580,33	35448,29
580,53	35251,69
580,72	35118,57
580,92	35546,59
581,12	35421,67
581,31	35223,01
581,51	35659,23
581,70	35407,33
581,90	35718,62
582,10	35493,35
582,29	35548,64
582,49	35401,19
582,68	35468,77
582,88	35904,99
583,07	35517,92
583,27	35362,28
583,47	35603,94
583,66	36247,00
583,86	35816,93
584,05	35726,81
584,25	35657,18
584,44	35208,68
584,64	34823,66
584,84	35010,03
585,03	34813,42
585,23	34250,23
585,42	35024,36
585,62	34514,42
585,81	34952,68
586,01	34565,62
586,20	34606,58
586,40	34702,83
586,60	34592,24
586,79	34663,92
586,99	34672,11
587,18	34412,02
587,38	34530,80
587,57	33613,31
587,77	33179,14
587,96	32570,90
588,16	32767,50
588,35	31962,65
588,55	31815,19
588,75	31364,64
588,94	31630,88
589,14	31649,31
589,33	31329,83
589,53	31782,43
589,72	31407,65
589,92	32597,52
590,11	32134,68
590,31	32327,19
590,50	32212,50
590,70	32085,53
590,89	32511,50
591,09	32280,08
591,28	32103,96
591,48	32675,34
591,67	32347,67
591,87	32579,09
592,06	32521,74
592,26	32675,34
592,45	32618,00
592,65	32976,39
592,84	32738,83
593,04	32423,44
593,23	32284,18
593,43	32425,49
593,62	32050,71
593,82	32077,33
594,01	31616,54
594,21	32222,74
594,40	32017,94
594,60	31653,41
594,79	31493,66
594,99	31903,26
595,18	31555,10
595,38	31266,34
595,57	31682,08
595,77	31927,83
595,96	31764,00
596,16	32009,75
596,35	31946,26
596,55	31157,80
596,74	31643,17
596,94	31745,56
597,13	31389,22
597,33	31469,09
597,52	31282,72
597,72	31170,08
597,91	30983,72
598,11	31000,10
598,30	30817,83
598,50	31084,07
598,69	30438,96
598,88	30559,79
599,08	30447,15
599,27	31110,69
599,47	29929,02
599,66	30041,65
599,86	30127,67
600,05	30250,55
600,25	30029,37
600,44	29447,74
600,64	29568,57
600,83	29400,64
601,02	29939,26
601,22	29484,61
601,41	29457,98
601,61	29896,25
601,80	29574,72
602,00	29716,03
602,19	29263,43
602,38	29324,86
602,58	29273,67
602,77	29523,52
602,97	29511,23
603,16	30297,65
603,36	29279,81
603,55	30127,67
603,74	28859,98
603,94	29326,91
604,13	29283,91
604,33	28782,15
604,52	28876,36
604,72	28771,91
604,91	28870,22
605,10	29206,08
605,30	28798,54
605,49	28747,34
605,69	28831,30
605,88	28696,14
606,07	29011,53
606,27	29060,68
606,46	28685,90
606,66	28882,50
606,85	28470,86
607,04	28339,79
607,24	28143,19
607,43	28214,87
607,63	27973,21
607,82	28028,50
608,01	27995,73
608,21	27721,30
608,40	27407,97
608,60	27317,86
608,79	27162,21
608,98	26814,05
609,18	27463,26
609,37	26875,49
609,57	26709,61
609,76	27174,50
609,95	26869,35
610,15	26900,07
610,34	26924,65
610,53	26967,65
610,73	26674,79
610,92	26838,63
611,11	26740,33
611,31	26439,28
611,50	26584,68
611,70	26316,40
611,89	26416,75
612,08	26355,31
612,28	26416,75
612,47	26439,28
612,66	26459,76
612,86	26041,97
613,05	25976,44
613,24	26170,99
613,44	26513,00
613,63	26234,48
613,82	26420,84
614,02	26193,52
614,21	25679,48
614,41	25921,14
614,60	25695,86
614,79	25534,07
614,99	25896,56
615,18	25960,05
615,37	25380,48
615,57	25546,36
615,76	25536,12
615,95	25321,09
616,15	25257,60
616,34	25581,18
616,53	25886,32
616,73	26277,49
616,92	26455,66
617,11	26164,85
617,30	26230,38
617,50	26033,78
617,69	25986,68
617,88	26261,10
618,08	26091,12
618,27	26502,76
618,46	26310,25
618,66	26472,04
618,85	26236,53
619,04	26295,92
619,24	26666,60
619,43	26408,56
619,62	26732,14
619,82	27139,68
620,01	26857,06
620,20	26578,54
620,39	27199,07
620,59	26711,66
620,78	26762,86
620,97	26580,59
621,17	26416,75
621,36	26908,26
621,55	26553,96
621,74	26627,69
621,94	26547,82
622,13	26572,39
622,32	26639,98
622,52	26320,49
622,71	26238,58
622,90	26173,04
623,09	26304,11
623,29	26398,32
623,48	26373,74
623,67	26449,52
623,86	26300,01
624,06	26076,79
624,25	25880,18
624,44	25792,12
624,64	25648,76
624,83	25974,39
625,02	25140,86
625,21	25777,78
625,41	25773,69
625,60	26052,21
625,79	25831,03
625,98	25949,81
626,18	26359,41
626,37	25499,26
626,56	25534,07
626,75	25808,50
626,95	24968,84
627,14	25515,64
627,33	25036,42
627,52	25118,34
627,72	25177,73
627,91	24712,84
628,10	24776,33
628,29	24790,66
628,49	24575,62
628,68	24161,94
628,87	24237,71
629,06	24688,26
629,25	24282,77
629,45	24151,70
629,64	24315,53
629,83	24745,61
630,02	24786,57
630,22	24321,68
630,41	24723,08
630,60	24727,17
630,79	24657,54
630,98	24505,99
631,18	24614,54
631,37	24401,55
631,56	24608,39
631,75	24405,64
631,94	24505,99
632,14	24540,81
632,33	24505,99
632,52	24434,32
632,71	24020,63
632,90	24151,70
633,10	24571,53
633,29	24327,82
633,48	24487,56
633,67	24518,28
633,86	24229,52
634,06	24796,81
634,25	24491,66
634,44	24600,20
634,63	24532,62
634,82	24440,46
635,02	24219,28
635,21	23801,49
635,40	24008,34
635,59	23748,25
635,78	23645,85
635,97	23672,47
636,17	23264,93
636,36	23848,60
636,55	23717,53
636,74	24073,87
636,93	23445,15
637,12	23731,86
637,32	23924,37
637,51	23907,99
637,70	23705,24
637,89	23594,65
638,08	23977,62
638,27	23733,91
638,47	23762,58
638,66	23684,76
638,85	23551,64
639,04	23279,26
639,23	23131,81
639,42	23348,89
639,62	23314,08
639,81	23226,01
640,00	22828,71
640,19	23119,52
640,38	22802,08
640,57	22914,72
640,76	22865,57
640,95	22847,14
641,15	22691,49
641,34	22912,67
641,53	22750,88
641,72	22560,42
641,91	22742,69
642,10	22322,86
642,29	22429,35
642,49	22824,61
642,68	22242,99
642,87	22568,62
643,06	22537,90
643,25	22204,08
643,44	22175,41
643,63	22296,24
643,82	22212,27
644,01	22531,75
644,21	22159,02
644,40	21860,02
644,59	22154,93
644,78	22326,96
644,97	21860,02
645,16	22046,38
645,35	22185,65
645,54	22425,26
645,73	22265,52
645,92	22228,65
646,12	21884,59
646,31	21808,82
646,50	21755,57
646,69	21898,93
646,88	21276,35
647,07	21274,30
647,26	21329,59
647,45	21038,78
647,64	20508,36
647,83	21096,13
648,02	21065,41
648,22	20950,72
648,41	20979,39
648,60	20291,27
648,79	20780,74
648,98	20686,53
649,17	20248,27
649,36	20512,46
649,55	20514,50
649,74	20283,08
649,93	20596,42
650,12	20487,88
650,31	20606,66
650,50	20391,62
650,69	20434,63
650,88	20272,84
651,08	20274,89
651,27	19936,98
651,46	20240,08
651,65	20551,37
651,84	20440,78
652,03	20797,12
652,22	20645,57
652,41	20715,20
652,60	20528,84
652,79	20698,82
652,98	20248,27
653,17	20684,48
653,36	20287,18
653,55	20160,20
653,74	20203,21
653,93	20192,97
654,12	19812,05
654,31	19818,19
654,50	19715,80
654,69	19019,49
654,88	19027,68
655,07	18734,82
655,26	18314,98
655,45	17981,17
655,64	17784,56
655,83	17757,94
656,02	17616,63
656,21	17514,23
656,40	17886,96
656,59	17944,30
656,78	17905,39
656,97	18122,48
657,17	17800,94
657,36	17989,36
657,55	17975,02
657,74	18335,46
657,93	18427,62
658,12	18364,14
658,31	18583,27
658,50	18599,65
658,69	18878,18
658,87	19056,35
659,06	18720,48
659,25	18927,33
659,44	18845,41
659,63	18792,16
659,82	18806,50
660,01	18710,24
660,20	18521,83
660,39	18730,72
660,58	19201,75
660,77	18865,89
660,96	19066,59
661,15	18781,92
661,34	19205,85
661,53	18945,76
661,72	18726,63
661,91	18970,33
662,10	18831,07
662,29	19220,19
662,48	18679,52
662,67	18712,29
662,86	18728,67
663,05	18417,38
663,24	18474,73
663,43	18368,23
663,62	18532,07
663,81	18401,00
664,00	18335,46
664,19	18130,67
664,38	18413,29
664,57	18353,90
664,76	18564,84
664,94	18554,60
665,13	18276,07
665,32	18241,26
665,51	18482,92
665,70	18216,68
665,89	18175,72
666,08	17843,95
666,27	17999,60
666,46	18210,54
666,65	17878,77
666,84	18245,35
667,03	17858,29
667,22	17923,82
667,41	17848,05
667,60	17555,19
667,78	17821,42
667,97	17782,51
668,16	17731,31
668,35	17727,22
668,54	17850,10
668,73	18136,81
668,92	17829,62
669,11	17979,12
669,30	17409,78
669,49	17465,08
669,68	17350,39
669,86	17284,86
670,05	16905,98
670,24	17051,39
670,43	16742,14
670,62	16750,34
670,81	16662,27
671,00	16994,04
671,19	16703,23
671,38	16539,40
671,57	16611,07
671,75	16527,11
671,94	16473,86
672,13	16619,27
672,32	16738,05
672,51	16398,09
672,70	16463,62
672,89	16291,59
673,08	16387,85
673,26	16189,19
673,45	16279,30
673,64	16432,90
673,83	16418,57
674,02	16340,74
674,21	16115,47
674,40	16346,89
674,59	16064,27
674,77	16416,52
674,96	16264,97
675,15	16103,18
675,34	16035,60
675,53	15722,26
675,72	15728,40
675,91	16193,29
676,09	16023,31
676,28	15855,37
676,47	15974,16
676,66	15828,75
676,85	15980,30
677,04	16142,09
677,22	16432,90
677,41	16078,60
677,60	16064,27
677,79	16013,07
677,98	15935,24
678,17	16043,79
678,36	16164,62
678,54	16131,85
678,73	15980,30
678,92	16211,72
679,11	15902,48
679,30	15707,92
679,48	15761,17
679,67	15953,68
679,86	15857,42
680,05	15505,17
680,24	15507,22
680,43	15402,77
680,61	15480,60
680,80	15210,26
680,99	15515,41
681,18	15265,56
681,37	15148,82
681,55	15585,04
681,74	15105,82
681,93	14929,69
682,12	15257,37
682,31	15050,52
682,49	14772,00
682,68	14417,70
682,87	14550,82
683,06	14507,81
683,25	14790,43
683,43	14595,87
683,62	14522,15
683,81	14329,64
684,00	14376,74
684,19	14184,23
684,37	14520,10
684,56	14559,01
684,75	14284,58
684,94	14155,56
685,12	13909,80
685,31	13831,98
685,50	13485,87
685,69	13211,45
685,88	12590,91
686,06	12304,20
686,25	12199,75
686,44	11663,18
686,63	11452,24
686,81	11151,19
687,00	11183,96
687,19	11390,80
687,38	11220,82
687,56	11417,43
687,75	11126,61
687,94	11276,12
688,13	11188,05
688,31	11249,49
688,50	11231,06
688,69	11233,11
688,88	11208,53
689,06	11321,17
689,25	11368,27
689,44	11732,81
689,63	11726,67
689,81	11908,94
690,00	11880,27
690,19	12060,49
690,38	12422,98
690,56	12308,29
690,75	12109,64
690,94	12066,63
691,13	12382,02
691,31	12488,51
691,50	12025,67
691,69	12416,83
691,87	12455,75
692,06	12410,69
692,25	12334,92
692,44	12623,68
692,62	12418,88
692,81	12293,96
693,00	12371,78
693,18	12336,96
693,37	12121,93
693,56	12285,76
693,75	12453,70
693,93	12316,48
694,12	12097,35
694,31	11978,57
694,49	12035,91
694,68	12154,69
694,87	11857,74
695,05	12062,54
695,24	12293,96
695,43	12265,28
695,62	12220,23
695,80	12359,49
695,99	12191,56
696,18	12382,02
696,36	12377,92
696,55	12392,26
696,74	12416,83
696,92	12355,40
697,11	12212,04
697,30	12326,72
697,48	12138,31
697,67	12336,96
697,86	12013,38
698,04	12212,04
698,23	11980,62
698,42	12074,82
698,60	12230,47
698,79	12154,69
698,98	12101,45
699,16	11906,89
699,35	12037,96
699,54	12017,48
699,72	11988,81
699,91	12052,30
700,10	11827,02
700,28	11947,85
700,47	11458,39
700,66	11654,99
700,84	11779,92
701,03	11849,55
701,21	11704,14
701,40	11720,53
701,59	11564,88
701,77	11732,81
701,96	11616,08
702,15	11685,71
702,33	11777,87
702,52	11798,35
702,71	11468,62
702,89	11929,42
703,08	11956,04
703,26	11638,61
703,45	12105,54
703,64	11845,45
703,82	11628,37
704,01	12150,60
704,20	11824,97
704,38	11804,49
704,57	11857,74
704,75	11999,05
704,94	11648,85
705,13	11931,47
705,31	11812,68
705,50	11921,23
705,68	11755,34
705,87	11829,07
706,06	11732,81
706,24	11847,50
706,43	11802,44
706,61	11435,86
706,80	11638,61
706,99	11685,71
707,17	11497,30
707,36	11312,98
707,54	11290,45
707,73	11501,39
707,92	11618,13
708,10	11548,50
708,29	11437,91
708,47	11274,07
708,66	11257,68
708,84	11364,18
709,03	11204,44
709,22	11190,10
709,40	11202,39
709,59	11218,77
709,77	10923,87
709,96	11143,00
710,14	11007,83
710,33	10979,16
710,52	10907,48
710,70	11069,27
710,89	11038,55
711,07	11003,74
711,26	10964,82
711,44	10788,70
711,63	10706,78
711,81	10936,15
712,00	10739,55
712,19	10661,73
712,37	10868,57
712,56	10700,64
712,74	10809,18
712,93	10506,08
713,11	10860,38
713,30	10821,47
713,48	10848,09
713,67	10741,60
713,85	10628,96
714,04	10491,74
714,22	10514,27
714,41	10297,19
714,59	10479,46
714,78	10362,72
714,97	10293,09
715,15	10114,92
715,34	9903,98
715,52	9860,97
715,71	9910,12
715,89	9725,80
716,08	9543,53
716,26	9412,46
716,45	9330,55
716,63	9342,83
716,82	9113,46
717,00	8859,51
717,19	8904,57
717,37	8712,06
717,56	8398,72
717,74	8525,69
717,93	8144,77
718,11	8245,12
718,30	8222,59
718,48	7937,93
718,67	8220,55
718,85	7964,55
719,04	7919,50
719,22	7704,46
719,41	7835,53
719,59	7790,47
719,78	7989,13
719,96	7870,34
720,15	8220,55
720,33	8322,94
720,52	8079,24
720,70	8509,31
720,88	8656,76
721,07	8879,99
721,25	8617,85
721,44	8791,93
721,62	8660,86
721,81	8654,72
721,99	8556,41
722,18	8742,78
722,36	8654,72
722,55	8572,80
722,73	8593,28
722,92	8372,10
723,10	8382,34
723,28	8353,66
723,47	8005,51
723,65	7964,55
723,84	8054,66
724,02	7974,79
724,21	7888,78
724,39	8030,09
724,58	8087,43
724,76	7919,50
724,94	8075,14
725,13	7788,43
725,31	7954,31
725,50	7964,55
725,68	8036,23
725,87	7872,39
726,05	7612,30
726,23	7942,02
726,42	7823,24
726,60	7939,97
726,79	7780,23
726,97	7849,86
727,16	7446,41
727,34	7851,91
727,52	7604,11
727,71	7618,44
727,89	7817,10
728,08	7624,59
728,26	7681,93
728,44	7798,66
728,63	7597,96
728,81	7438,22
729,00	7669,64
729,18	7747,47
729,36	7690,12
729,55	7552,91
729,73	7450,51
729,92	7692,17
730,10	7446,41
730,28	7890,82
730,47	7694,22
730,65	7559,05
730,84	7604,11
731,02	7503,76
731,20	7534,48
731,39	7593,87
731,57	7782,28
731,75	7835,53
731,94	7782,28
732,12	7718,79
732,31	7747,47
732,49	8097,67
732,67	7813,00
732,86	8122,24
733,04	7917,45
733,22	7815,05
733,41	7813,00
733,59	8126,34
733,78	7923,59
733,96	7790,47
734,14	8056,71
734,33	7956,36
734,51	7692,17
734,69	7626,64
734,88	7831,43
735,06	7901,06
735,24	7774,09
735,43	7712,65
735,61	7878,54
735,79	7747,47
735,98	7853,96
736,16	7677,83
736,34	7665,55
736,53	7587,72
736,71	7616,40
736,89	7456,65
737,08	7708,55
737,26	7681,93
737,44	7640,97
737,63	7663,50
737,81	7505,81
737,99	7804,81
738,18	7538,57
738,36	7499,66
738,54	7622,54
738,73	7208,85
738,91	7321,49
739,09	7305,10
739,28	7278,48
739,46	7362,45
739,64	7360,40
739,82	7456,65
740,01	7313,30
740,19	7286,67
740,37	7221,14
740,56	7159,70
740,74	7378,83
740,92	7356,30
741,11	7466,89
741,29	7372,69
741,47	7059,35
741,65	7225,23
741,84	7296,91
742,02	7073,68
742,20	7331,73
742,39	7139,22
742,57	7184,27
742,75	7270,29
742,93	7196,56
743,12	7071,64
743,30	6999,96
743,48	7262,10
743,67	7071,64
743,85	7405,46
744,03	6911,89
744,21	7233,43
744,40	7047,06
744,58	6903,70
744,76	7004,05
744,94	7188,37
745,13	7243,67
745,31	7258,00
745,49	6932,37
745,67	6858,65
745,86	6905,75
746,04	7200,66
746,22	7032,72
746,40	7085,97
746,59	7073,68
746,77	6901,65
746,95	6836,12
747,13	6887,32
747,32	6897,56
747,50	6879,13
747,68	6848,41
747,86	6901,65
748,05	6582,17
748,23	6815,64
748,41	6766,49
748,59	6631,32
748,77	6973,33
748,96	6496,16
749,14	6379,42
749,32	6459,29
749,50	6379,42
749,69	6283,17
749,87	6313,89
750,05	6414,24
750,23	6418,33
750,41	6461,34
750,60	6481,82
750,78	6522,78
750,96	6186,91
751,14	6315,94
751,32	6356,90
751,51	6375,33
751,69	6395,81
751,87	6260,64
752,05	6360,99
752,23	6410,14
752,42	6287,26
752,60	6457,25
752,78	6016,93
752,96	6256,54
753,14	6252,45
753,33	6242,21
753,51	6324,13
753,69	6311,84
753,87	6367,13
754,05	6422,43
754,23	6143,91
754,42	6408,09
754,60	6197,15
754,78	6191,01
754,96	6340,51
755,14	6244,26
755,32	6135,71
755,51	6461,34
755,69	6393,76
755,87	6498,20
756,05	6186,91
756,23	6563,74
756,41	6401,95
756,60	6113,19
756,78	6207,39
756,96	6354,85
757,14	6260,64
757,32	6387,61
757,50	6354,85
757,68	6145,95
757,87	6121,38
758,05	6141,86
758,23	5799,85
758,41	5322,67
758,59	5242,80
758,77	4695,99
758,95	4446,14
759,14	3899,33
759,32	3321,81
759,50	3207,12
759,68	2793,43
759,86	2480,09
760,04	2463,71
760,22	2203,61
760,40	2283,49
760,59	2332,64
760,77	2338,78
760,95	2537,43
761,13	2529,24
761,31	2508,76
761,49	2482,14
761,67	2385,88
761,85	2381,79
762,03	2109,41
762,22	2211,81
762,40	2160,61
762,58	2164,70
762,76	2023,39
762,94	2291,68
763,12	2236,38
763,30	2398,17
763,48	2674,65
763,66	2717,65
763,84	2922,45
764,02	2650,07
764,21	2955,22
764,39	3096,53
764,57	3301,33
764,75	3356,62
764,93	3403,72
765,11	3706,82
765,29	3852,23
765,47	3950,53
765,65	4138,94
765,83	4175,81
766,01	4513,72
766,19	4593,59
766,37	4667,32
766,56	4947,89
766,74	5144,50
766,92	4984,76
767,10	5007,28
767,28	5275,57
767,46	5349,29
767,64	5466,03
767,82	5562,28
768,00	5511,08
768,18	5857,19
768,36	5490,60
768,54	5818,28
768,72	5560,24
768,90	5932,97
769,08	5810,09
769,26	5842,85
769,44	5582,76
769,62	5603,24
769,80	5662,63
769,98	5898,15
770,16	5560,24
770,34	5892,01
770,52	5707,69
770,71	5879,72
770,89	5707,69
771,07	5484,46
771,25	5457,84
771,43	5828,52
771,61	5932,97
771,79	5750,70
771,97	5625,77
772,15	5765,03
772,33	5734,31
772,51	5701,54
772,69	5734,31
772,87	5625,77
773,05	5713,83
773,23	5527,47
773,41	5552,04
773,59	5746,60
773,77	5601,19
773,95	5504,94
774,13	5261,23
774,31	5550,00
774,49	5250,99
774,67	5513,13
774,85	5420,97
775,03	5357,49
775,21	5238,70
775,39	5355,44
775,57	5273,52
775,75	5111,73
775,93	5136,31
776,10	5273,52
776,28	5244,85
776,46	5283,76
776,64	5021,62
776,82	5027,76
777,00	4411,32
777,18	5021,62
777,36	4847,54
777,54	4984,76
777,72	5074,87
777,90	4956,08
778,08	4935,60
778,26	4931,51
778,44	5001,14
778,62	4902,84
778,80	4732,86
778,98	4757,43
779,16	4822,97
779,34	4765,62
779,52	4779,96
779,70	4583,35
779,88	4716,47
780,05	4704,18
780,23	4736,95
780,41	4505,53
780,59	4677,56
780,77	4515,77
780,95	4394,94
781,13	4519,87
781,31	4605,88
781,49	4468,67
781,67	4634,55
781,85	4440,00
782,03	4349,89
782,21	4495,29
782,39	4409,28
782,56	4247,49
782,74	4310,97
782,92	4276,16
783,10	4218,82
783,28	4161,47
783,46	4298,69
783,64	4245,44
783,82	4403,13
784,00	3866,56
784,18	4218,82
784,35	4159,42
784,53	4294,59
784,71	4245,44
784,89	4114,37
785,07	4059,07
785,25	4136,90
785,43	4237,25
785,61	4114,37
785,79	4026,31
785,96	3948,48
786,14	4040,64
786,32	4044,74
786,50	4132,80
786,68	3968,96
786,86	3991,49
787,04	3911,62
787,22	3792,84
787,39	3958,72
787,57	3944,39
787,75	3878,85
787,93	3907,52
788,11	3776,45
788,29	3604,42
788,47	3665,86
788,65	3880,90
788,82	3487,69
789,00	3909,57
789,18	3700,68
789,36	3700,68
789,54	3680,20
789,72	3749,83
789,89	3755,97
790,07	3729,35
790,25	3588,04
790,43	3606,47
790,61	3631,05
790,79	3651,53
790,96	3450,83
791,14	3354,57
791,32	3471,31
791,50	3418,06
791,68	3307,47
791,86	3405,77
792,03	3434,44
792,21	3268,56
792,39	3614,66
792,57	3487,69
792,75	3250,13
792,93	3278,80
793,10	3143,63
793,28	3399,63
793,46	3319,76
793,64	3446,73
793,82	3198,93
793,99	3155,92
794,17	3282,89
794,35	3082,19
794,53	3172,30
794,71	3309,52
794,88	3125,20
795,06	3180,50
795,24	3313,61
795,42	3338,19
795,60	3037,14
795,77	3235,79
795,95	3157,97
796,13	3250,13
796,31	3422,16
796,49	3094,48
796,66	3200,98
796,84	3186,64
797,02	2971,60
797,20	3069,91
797,37	3233,74
797,55	3381,20
797,73	3198,93
797,91	3139,54
798,08	3151,82
798,26	3035,09
798,44	3182,54
798,62	3254,22
798,80	2959,31
798,97	2947,03
799,15	2912,21
799,33	2908,12
799,51	2838,48
799,68	3053,52
799,86	2963,41
800,04	2818,00
800,22	2744,28
800,39	2965,46
800,57	2752,47
800,75	2967,51
800,93	2885,59
801,10	2897,88
801,28	2785,24
801,46	2877,40
801,63	2873,30
801,81	2877,40
801,99	2787,29
802,17	2842,58
802,34	2662,36
802,52	2805,72
802,70	2760,66
802,88	2693,08
803,05	2568,15
803,23	2648,02
803,41	2684,89
803,58	2641,88
803,76	2744,28
803,94	2637,78
804,12	2697,17
804,29	2772,95
804,47	2682,84
804,65	2666,46
804,82	2695,13
805,00	2762,71
805,18	2662,36
805,35	2781,14
805,53	2615,26
805,71	2711,51
805,89	2637,78
806,06	2568,15
806,24	2641,88
806,42	2576,34
806,59	2629,59
806,77	2877,40
806,95	2607,06
807,12	2392,03
807,30	2486,23
807,48	2578,39
807,65	2525,15
807,83	2574,30
808,01	2596,82
808,18	2443,23
808,36	2385,88
808,54	2492,38
808,71	2498,52
808,89	2369,50
809,07	2404,32
809,24	2381,79
809,42	2402,27
809,60	2523,10
809,77	2349,02
809,95	2428,89
810,13	2443,23
810,30	2449,37
810,48	2285,53
810,66	2293,73
810,83	2322,40
811,01	2293,73
811,18	2328,54
811,36	2209,76
811,54	2279,39
811,71	2314,20
811,89	2232,29
812,07	2240,48
812,24	2258,91
812,42	2273,25
812,59	2166,75
812,77	2127,84
812,95	2146,27
813,12	2357,21
813,30	2107,36
813,48	2095,07
813,65	2052,06
813,83	2072,54
814,00	2117,60
814,18	1949,67
814,36	2156,51
814,53	1972,19
814,71	2121,70
814,88	1959,91
815,06	1994,72
815,24	1945,57
815,41	1910,75
815,59	1892,32
815,76	1877,99
815,94	1773,54
816,12	1890,28
816,29	1763,30
816,47	1804,26
816,64	1630,18
816,82	2052,06
817,00	1769,45
817,17	1841,12
817,35	1806,31
817,52	1732,58
817,70	1841,12
817,87	1859,56
818,05	1742,82
818,23	1736,68
818,40	1648,61
818,58	1720,29
818,75	1865,70
818,93	1982,43
819,10	1710,05
819,28	1660,90
819,46	1738,73
819,63	1783,78
819,81	1671,14
819,98	1839,08
820,16	1695,72
820,33	1767,40
820,51	1714,15
820,68	1890,28
820,86	1765,35
821,03	1755,11
821,21	1734,63
821,39	1609,70
821,56	1765,35
821,74	1687,53
821,91	1595,37
822,09	1619,94
822,26	1472,49
822,44	1630,18
822,61	1511,40
822,79	1613,80
822,96	1681,38
823,14	1718,25
823,31	1798,12
823,49	1662,95
823,66	1693,67
823,84	1642,47
824,01	1683,43
824,19	1746,92
824,36	1630,18
824,54	1753,06
824,71	1578,98
824,89	1667,05
825,06	1517,54
825,24	1714,15
825,41	1691,62
825,59	1511,40
825,76	1624,04
825,94	1558,50
826,11	1595,37
826,29	1695,72
826,46	1765,35
826,64	1656,81
826,81	1593,32
826,99	1513,45
827,16	1568,74
827,34	1658,85
827,51	1599,46
827,69	1433,58
827,86	1632,23
828,04	1548,26
828,21	1556,46
828,39	1603,56
828,56	1630,18
828,74	1331,18
828,91	1490,92
829,09	1318,89
829,26	1488,87
829,43	1562,60
829,61	1507,30
829,78	1513,45
829,96	1464,30
830,13	1509,35
830,31	1480,68
830,48	1562,60
830,66	1497,07
830,83	1482,73
831,01	1519,59
831,18	1419,24
831,35	1517,54
831,53	1529,83
831,70	1507,30
831,88	1363,95
832,05	1464,30
832,23	1478,63
832,40	1388,52
832,57	1613,80
832,75	1581,03
832,92	1423,34
833,10	1574,89
833,27	1499,11
833,45	1435,63
833,62	1490,92
833,79	1357,80
833,97	1470,44
834,14	1396,71
834,32	1363,95
834,49	1513,45
834,66	1628,14
834,84	1642,47
835,01	1484,78
835,19	1497,07
835,36	1413,10
835,53	1312,75
835,71	1392,62
835,88	1378,28
836,06	1525,74
836,23	1318,89
836,40	1599,46
836,58	1497,07
836,75	1540,07
836,93	1363,95
837,10	1447,91
837,27	1464,30
837,45	1562,60
837,62	1415,15
837,79	1470,44
837,97	1239,02
838,14	1490,92
838,32	1413,10
838,49	1374,19
838,66	1292,27
838,84	1427,43
839,01	1273,84
839,18	1394,67
839,36	1374,19
839,53	1421,29
839,70	1439,72
839,88	1388,52
840,05	1279,98
840,23	1394,67
840,40	1261,55
840,57	1378,28
840,75	1271,79
840,92	1290,22
841,09	1329,13
841,27	1218,54
841,44	1411,05
841,61	1288,17
841,79	1398,76
841,96	1384,43
842,13	1331,18
842,31	1185,77
842,48	1427,43
842,65	1298,41
842,83	1255,40
843,00	1331,18
843,17	1322,99
843,35	1155,05
843,52	1282,03
843,69	1128,43
843,86	1224,69
844,04	1245,17
844,21	1241,07
844,38	1216,49
844,56	1437,67
844,73	1112,05
844,90	1155,05
845,08	1275,88
845,25	1292,27
845,42	1093,62
845,60	1216,49
845,77	1271,79
845,94	1329,13
846,11	1159,15
846,29	1191,92
846,46	1196,01
846,63	1247,21
846,81	1130,48
846,98	1148,91
847,15	1286,12
847,32	1226,73
847,50	1271,79
847,67	1249,26
847,84	1187,82
848,01	1171,44
848,19	1093,62
848,36	1122,29
848,53	1251,31
848,71	1097,71
848,88	1042,42
849,05	1210,35
849,22	1157,10
849,40	1179,63
849,57	1185,77
849,74	1138,67
849,91	1077,23
850,09	1148,91
850,26	1153,01
850,43	1054,70
850,60	1064,94
850,78	1198,06
850,95	1159,15
851,12	1167,34
851,29	1030,13
851,47	1050,61
851,64	962,55
851,81	1140,72
851,98	1038,32
852,15	995,31
852,33	1112,05
852,50	1118,19
852,67	1036,27
852,84	1005,55
853,02	1056,75
853,19	948,21
853,36	933,87
853,53	1040,37
853,70	821,24
853,88	919,54
854,05	854,00
854,22	1048,56
854,39	905,20
854,56	915,44
854,74	1179,63
854,91	962,55
855,08	974,83
855,25	1019,89
855,42	933,87
855,60	880,63
855,77	962,55
855,94	825,33
856,11	1005,55
856,28	1101,81
856,46	972,79
856,63	909,30
856,80	968,69
856,97	946,16
857,14	880,63
857,31	1005,55
857,49	903,15
857,66	954,35
857,83	995,31
858,00	866,29
858,17	897,01
858,34	995,31
858,52	978,93
858,69	860,15
858,86	964,59
859,03	954,35
859,20	876,53
859,37	944,11
859,55	927,73
859,72	915,44
859,89	931,83
860,06	888,82
860,23	890,87
860,40	897,01
860,57	894,96
860,75	968,69
860,92	870,39
861,09	845,81
861,26	935,92
861,43	907,25
861,60	827,38
861,77	925,68
861,95	804,85
862,12	950,26
862,29	933,87
862,46	786,42
862,63	837,62
862,80	724,98
862,97	808,95
863,14	862,19
863,31	911,35
863,49	921,59
863,66	958,45
863,83	845,81
864,00	864,24
864,17	860,15
864,34	745,46
864,51	892,91
864,68	847,86
864,85	1046,51
865,02	716,79
865,20	776,18
865,37	884,72
865,54	841,72
865,71	673,78
865,88	817,14
866,05	872,43
866,22	761,84
866,39	811,00
866,56	780,28
866,73	722,93
866,90	751,60
867,07	712,69
867,25	927,73
867,42	731,12
867,59	749,56
867,76	684,02
867,93	839,67
868,10	802,80
868,27	749,56
868,44	778,23
868,61	677,88
868,78	722,93
868,95	819,19
869,12	681,97
869,29	800,76
869,46	692,21
869,63	729,08
869,80	716,79
869,97	636,92
870,14	663,54
870,32	653,30
870,49	694,26
870,66	522,23
870,83	710,65
871,00	714,74
871,17	630,77
871,34	716,79
871,51	659,45
871,68	667,64
871,85	776,18
872,02	616,44
872,19	774,13
872,36	765,94
872,53	577,53
872,70	747,51
872,87	757,75
873,04	669,69
873,21	751,60
873,38	706,55
873,55	638,97
873,72	616,44
873,89	624,63
874,06	667,64
874,23	729,08
874,40	763,89
874,57	669,69
874,74	673,78
874,91	616,44
875,08	761,84
875,25	727,03
875,42	614,39
875,59	641,01
875,76	622,58
875,93	649,21
876,10	526,33
876,27	604,15
876,44	397,31
876,61	649,21
876,78	776,18
876,95	585,72
877,12	497,66
877,29	612,34
877,46	618,49
877,62	509,94
877,79	688,12
877,96	618,49
878,13	542,71
878,30	585,72
878,47	511,99
878,64	606,20
878,81	442,36
878,98	434,17
879,15	481,27
879,32	655,35
879,49	489,46
879,66	497,66
879,83	604,15
880,00	555,00
880,17	497,66
880,34	444,41
880,51	608,25
880,67	503,80
880,84	614,39
881,01	534,52
881,18	520,18
881,35	544,76
881,52	425,98
881,69	501,75
881,86	481,27
882,03	511,99
882,20	641,01
882,37	538,62
882,54	542,71
882,70	339,96
882,87	499,70
883,04	432,12
883,21	581,62
883,38	514,04
883,55	397,31
883,72	571,38
883,89	499,70
884,06	550,90
884,23	559,10
884,39	552,95
884,56	393,21
884,73	391,16
884,90	532,47
885,07	317,44
885,24	509,94
885,41	348,15
885,58	555,00
885,74	534,52
885,91	534,52
886,08	440,31
886,25	497,66
886,42	536,57
886,59	495,61
886,76	546,81
886,93	514,04
887,09	503,80
887,26	415,74
887,43	505,85
887,60	468,98
887,77	458,75
887,94	378,87
888,10	462,84
888,27	471,03
888,44	436,22
888,61	466,94
888,78	434,17
888,95	385,02
889,12	399,35
889,28	440,31
889,45	544,76
889,62	471,03
889,79	452,60
889,96	526,33
890,13	446,46
890,29	393,21
890,46	362,49
890,63	454,65
890,80	403,45
890,97	423,93
891,13	466,94
891,30	329,72
891,47	325,63
891,64	468,98
891,81	544,76
891,98	491,51
892,14	391,16
892,31	385,02
892,48	434,17
892,65	475,13
892,82	378,87
892,98	397,31
893,15	448,51
893,32	368,63
>>>>>End Processed Spectral Data<<<<<
